OOIBase32 Version 2.0.6.5 Data File
++++++++++++++++++++++++++++++++++++
Date: 03-23-2011, 12:16:15
User: Valued Ocean Optics Customer
Spectrometer Serial Number: USB4C01507
Spectrometer Channel: Master
Integration Time (msec): 62
Spectra Averaged: 20
Boxcar Smoothing: 5
Correct for Electrical Dark: Enabled
Time Normalized: Disabled
Dual-beam Reference: Disabled
Reference Channel: Master
Temperature: Not acquired
Spectrometer Type: S4000
ADC Type: USB4000
Number of Pixels in File: 3648
Graph Title: 
>>>>>Begin Spectral Data<<<<<
178.53	76.872
178.74	1794.014
178.96	184.152
179.18	-14.915
179.39	-291.545
179.61	55.142
179.82	62.587
180.04	75.651
180.25	50.200
180.47	83.509
180.69	375.323
180.90	57.820
181.12	62.587
181.33	33523.592
181.55	266.851
181.76	44.515
181.98	328.380
182.20	-29.597
182.41	24.034
182.63	66.962
182.84	42.189
183.06	44.833
183.27	39.419
183.49	25.466
183.71	28.484
183.92	13.530
184.14	20.439
184.35	13.244
184.57	7.288
184.78	12.001
185.00	11.159
185.21	12.917
185.43	9.183
185.65	11.408
185.86	21.505
186.08	17.449
186.29	20.478
186.51	18.909
186.72	24.792
186.94	27.806
187.15	20.939
187.37	30.132
187.58	34.448
187.80	34.086
188.02	28.262
188.23	19.096
188.45	20.100
188.66	26.149
188.88	14.204
189.09	13.581
189.31	15.194
189.52	13.497
189.74	11.640
189.95	9.760
190.17	11.709
190.38	12.303
190.60	18.970
190.82	20.900
191.03	21.294
191.25	28.331
191.46	21.218
191.68	19.051
191.89	26.334
192.11	27.119
192.32	27.042
192.54	25.701
192.75	24.220
192.97	29.941
193.18	23.132
193.40	25.500
193.61	28.841
193.83	40.400
194.04	39.916
194.26	38.341
194.48	41.140
194.69	37.176
194.91	32.843
195.12	30.534
195.34	16.475
195.55	26.881
195.77	27.022
195.98	29.080
196.20	21.160
196.41	23.518
196.63	27.479
196.84	27.460
197.06	33.152
197.27	33.767
197.49	34.327
197.70	35.823
197.92	32.232
198.13	30.518
198.35	25.979
198.56	21.100
198.78	14.946
198.99	12.972
199.21	0.110
199.42	-1.760
199.64	3.099
199.85	6.980
200.07	12.413
200.28	13.432
200.50	9.989
200.71	10.837
200.93	16.016
201.14	22.325
201.36	18.201
201.57	32.347
201.79	30.672
202.00	27.012
202.22	19.108
202.43	22.381
202.65	20.559
202.86	17.732
203.08	14.566
203.29	11.714
203.51	3.957
203.72	5.496
203.94	5.297
204.15	4.725
204.37	5.573
204.58	16.037
204.80	13.106
205.01	19.072
205.22	20.245
205.44	25.323
205.65	27.682
205.87	31.115
206.08	29.320
206.30	27.400
206.51	30.865
206.73	32.060
206.94	30.021
207.16	30.151
207.37	28.210
207.59	28.260
207.80	23.253
208.02	22.968
208.23	24.400
208.45	27.151
208.66	26.232
208.88	23.993
209.09	22.526
209.30	20.874
209.52	18.294
209.73	13.496
209.95	15.073
210.16	16.937
210.38	18.174
210.59	19.353
210.81	21.464
211.02	21.260
211.24	16.163
211.45	17.829
211.66	13.179
211.88	16.156
212.09	17.451
212.31	17.898
212.52	16.100
212.74	12.289
212.95	7.420
213.17	-0.242
213.38	-1.533
213.60	6.139
213.81	2.731
214.02	6.917
214.24	0.918
214.45	0.619
214.67	-1.594
214.88	-2.290
215.10	-0.997
215.31	5.358
215.53	11.077
215.74	12.191
215.95	12.113
216.17	8.244
216.38	6.295
216.60	9.137
216.81	8.245
217.03	8.204
217.24	10.292
217.45	14.572
217.67	14.532
217.88	10.610
218.10	14.673
218.31	16.894
218.53	21.374
218.74	20.266
218.95	19.132
219.17	18.827
219.38	20.094
219.60	20.490
219.81	17.330
220.03	12.229
220.24	14.391
220.45	11.543
220.67	6.459
220.88	6.622
221.10	7.418
221.31	8.482
221.53	9.348
221.74	8.606
221.95	7.136
222.17	6.376
222.38	7.255
222.60	8.283
222.81	8.919
223.02	11.846
223.24	12.350
223.45	13.314
223.67	12.102
223.88	12.139
224.09	10.999
224.31	12.918
224.52	12.921
224.74	12.544
224.95	10.474
225.16	10.106
225.38	8.805
225.59	7.996
225.81	6.798
226.02	7.706
226.23	8.230
226.45	8.720
226.66	7.408
226.88	6.798
227.09	6.757
227.30	6.480
227.52	5.834
227.73	5.350
227.95	5.055
228.16	4.922
228.37	4.826
228.59	4.564
228.80	4.465
229.02	4.635
229.23	4.649
229.44	4.729
229.66	4.853
229.87	4.862
230.08	4.834
230.30	4.871
230.51	4.881
230.73	4.905
230.94	4.937
231.15	5.232
231.37	5.044
231.58	5.458
231.80	5.202
232.01	4.834
232.22	5.213
232.44	5.758
232.65	5.703
232.86	6.166
233.08	5.603
233.29	5.182
233.51	4.684
233.72	5.085
233.93	4.736
234.15	5.127
234.36	5.353
234.57	5.232
234.79	5.247
235.00	5.411
235.21	5.184
235.43	5.841
235.64	6.295
235.86	6.763
236.07	6.104
236.28	6.379
236.50	5.987
236.71	6.048
236.92	6.052
237.14	5.460
237.35	5.714
237.56	5.904
237.78	5.391
237.99	5.700
238.20	5.241
238.42	6.059
238.63	5.354
238.84	5.643
239.06	5.497
239.27	5.125
239.48	5.208
239.70	4.791
239.91	4.840
240.13	4.900
240.34	4.177
240.55	4.205
240.77	3.924
240.98	4.008
241.19	4.082
241.41	3.854
241.62	4.045
241.83	4.231
242.05	4.278
242.26	4.297
242.47	4.213
242.69	4.505
242.90	4.687
243.11	4.500
243.33	4.567
243.54	4.535
243.75	4.846
243.97	4.865
244.18	4.678
244.39	4.859
244.61	4.846
244.82	5.085
245.03	4.741
245.24	4.327
245.46	4.591
245.67	4.449
245.88	4.520
246.10	4.377
246.31	4.223
246.52	4.285
246.74	4.278
246.95	4.276
247.16	4.323
247.38	4.340
247.59	4.372
247.80	4.377
248.02	4.411
248.23	4.344
248.44	4.296
248.66	4.318
248.87	4.396
249.08	4.423
249.29	4.313
249.51	4.286
249.72	4.357
249.93	4.410
250.15	4.429
250.36	4.487
250.57	4.700
250.79	5.145
251.00	5.303
251.21	5.097
251.42	4.623
251.64	4.961
251.85	4.851
252.06	4.815
252.28	4.861
252.49	4.830
252.70	4.926
252.91	5.021
253.13	4.836
253.34	4.785
253.55	4.843
253.77	5.337
253.98	5.219
254.19	5.568
254.40	5.811
254.62	5.795
254.83	5.963
255.04	5.634
255.26	5.121
255.47	5.444
255.68	5.632
255.89	5.577
256.11	4.846
256.32	4.689
256.53	4.356
256.75	4.218
256.96	4.281
257.17	4.173
257.38	4.422
257.60	4.571
257.81	4.638
258.02	4.414
258.23	4.337
258.45	4.541
258.66	4.445
258.87	4.262
259.09	4.189
259.30	4.107
259.51	4.147
259.72	4.110
259.94	4.123
260.15	4.092
260.36	4.162
260.57	4.087
260.79	4.090
261.00	4.126
261.21	4.154
261.42	4.200
261.64	4.265
261.85	4.457
262.06	4.587
262.27	4.652
262.49	4.604
262.70	4.599
262.91	4.842
263.12	4.822
263.34	4.855
263.55	5.015
263.76	4.969
263.97	4.857
264.19	4.608
264.40	4.307
264.61	4.161
264.82	4.115
265.04	4.037
265.25	3.746
265.46	3.521
265.67	3.533
265.88	3.178
266.10	3.021
266.31	3.161
266.52	3.164
266.73	3.219
266.95	3.337
267.16	3.396
267.37	3.311
267.58	3.426
267.80	3.445
268.01	3.265
268.22	3.529
268.43	3.662
268.64	3.543
268.86	3.449
269.07	3.513
269.28	3.344
269.49	3.421
269.71	3.515
269.92	3.571
270.13	3.642
270.34	3.829
270.55	3.819
270.77	3.761
270.98	3.834
271.19	3.818
271.40	3.863
271.61	4.033
271.83	3.809
272.04	3.844
272.25	3.871
272.46	3.927
272.68	3.907
272.89	3.863
273.10	3.891
273.31	3.830
273.52	3.865
273.74	3.720
273.95	3.668
274.16	3.719
274.37	3.602
274.58	3.518
274.80	3.428
275.01	3.509
275.22	3.472
275.43	3.443
275.64	3.483
275.86	3.483
276.07	3.498
276.28	3.556
276.49	3.578
276.70	3.754
276.91	3.632
277.13	3.713
277.34	3.596
277.55	3.675
277.76	3.595
277.97	3.556
278.19	3.531
278.40	3.724
278.61	3.651
278.82	3.699
279.03	3.533
279.24	3.799
279.46	3.755
279.67	3.717
279.88	3.506
280.09	3.638
280.30	3.527
280.52	3.505
280.73	3.370
280.94	3.310
281.15	3.298
281.36	3.268
281.57	2.981
281.79	3.032
282.00	3.155
282.21	3.390
282.42	3.441
282.63	3.509
282.84	3.580
283.06	3.685
283.27	3.709
283.48	3.688
283.69	3.754
283.90	3.946
284.11	3.918
284.32	3.816
284.54	3.750
284.75	3.667
284.96	3.736
285.17	3.657
285.38	3.681
285.59	3.693
285.81	3.673
286.02	3.824
286.23	3.784
286.44	3.833
286.65	3.834
286.86	3.710
287.07	3.739
287.29	3.814
287.50	3.874
287.71	3.867
287.92	3.820
288.13	3.854
288.34	3.601
288.55	3.619
288.77	3.517
288.98	3.612
289.19	3.729
289.40	3.774
289.61	3.704
289.82	3.718
290.03	3.664
290.24	3.899
290.46	3.966
290.67	4.094
290.88	4.044
291.09	4.183
291.30	4.167
291.51	4.164
291.72	4.093
291.93	4.116
292.15	4.265
292.36	4.221
292.57	4.089
292.78	3.998
292.99	3.842
293.20	3.911
293.41	3.921
293.62	4.056
293.84	4.133
294.05	4.246
294.26	4.189
294.47	4.055
294.68	4.140
294.89	4.185
295.10	4.209
295.31	4.405
295.52	4.470
295.73	4.369
295.95	4.276
296.16	4.302
296.37	4.290
296.58	4.376
296.79	4.440
297.00	4.532
297.21	4.515
297.42	4.574
297.63	4.566
297.84	4.576
298.06	4.637
298.27	4.616
298.48	4.649
298.69	4.671
298.90	4.581
299.11	4.627
299.32	4.494
299.53	4.502
299.74	4.512
299.95	4.593
300.16	4.501
300.38	4.523
300.59	4.645
300.80	4.662
301.01	4.591
301.22	4.776
301.43	4.737
301.64	4.786
301.85	4.803
302.06	4.876
302.27	4.771
302.48	4.795
302.69	4.788
302.91	4.827
303.12	4.787
303.33	4.939
303.54	4.886
303.75	4.958
303.96	5.093
304.17	5.093
304.38	4.962
304.59	5.012
304.80	5.138
305.01	5.196
305.22	5.293
305.43	5.394
305.64	5.351
305.85	5.427
306.06	5.347
306.28	5.273
306.49	5.220
306.70	5.321
306.91	5.325
307.12	5.384
307.33	5.391
307.54	5.199
307.75	5.135
307.96	5.173
308.17	5.201
308.38	5.302
308.59	5.377
308.80	5.519
309.01	5.578
309.22	5.567
309.43	5.426
309.64	5.363
309.85	5.433
310.06	5.463
310.27	5.440
310.48	5.463
310.70	5.431
310.91	5.416
311.12	5.476
311.33	5.468
311.54	5.490
311.75	5.560
311.96	5.514
312.17	5.514
312.38	5.576
312.59	5.622
312.80	5.617
313.01	5.741
313.22	5.827
313.43	5.809
313.64	5.749
313.85	5.799
314.06	5.751
314.27	5.932
314.48	6.012
314.69	6.071
314.90	6.097
315.11	6.172
315.32	6.117
315.53	6.123
315.74	6.152
315.95	6.327
316.16	6.293
316.37	6.462
316.58	6.478
316.79	6.503
317.00	6.488
317.21	6.546
317.42	6.485
317.63	6.386
317.84	6.405
318.05	6.413
318.26	6.304
318.47	6.382
318.68	6.387
318.89	6.377
319.10	6.420
319.31	6.422
319.52	6.455
319.73	6.496
319.94	6.539
320.15	6.567
320.36	6.510
320.57	6.573
320.78	6.623
320.99	6.569
321.20	6.654
321.41	6.692
321.62	6.743
321.83	6.702
322.04	6.727
322.25	6.806
322.46	6.865
322.67	7.067
322.88	7.075
323.09	7.138
323.30	7.207
323.51	7.196
323.72	7.110
323.93	7.010
324.14	7.024
324.35	7.032
324.56	7.007
324.77	6.902
324.98	6.765
325.19	6.773
325.40	6.680
325.61	6.746
325.82	6.775
326.03	6.825
326.24	6.885
326.45	6.930
326.65	7.011
326.86	7.043
327.07	7.123
327.28	7.196
327.49	7.206
327.70	7.278
327.91	7.208
328.12	7.188
328.33	7.165
328.54	7.210
328.75	7.285
328.96	7.325
329.17	7.355
329.38	7.345
329.59	7.357
329.80	7.475
330.01	7.513
330.22	7.512
330.43	7.607
330.64	7.679
330.85	7.694
331.05	7.631
331.26	7.606
331.47	7.633
331.68	7.683
331.89	7.641
332.10	7.643
332.31	7.659
332.52	7.676
332.73	7.652
332.94	7.710
333.15	7.725
333.36	7.701
333.57	7.728
333.78	7.655
333.99	7.641
334.19	7.705
334.40	7.721
334.61	7.678
334.82	7.761
335.03	7.783
335.24	7.801
335.45	7.815
335.66	7.898
335.87	7.885
336.08	7.981
336.29	8.016
336.50	8.032
336.71	8.002
336.91	8.063
337.12	8.064
337.33	8.016
337.54	7.988
337.75	7.988
337.96	8.055
338.17	8.042
338.38	8.081
338.59	8.085
338.80	8.119
339.01	8.160
339.21	8.119
339.42	8.076
339.63	8.085
339.84	8.000
340.05	8.004
340.26	8.034
340.47	8.050
340.68	8.060
340.89	8.110
341.10	8.108
341.30	8.090
341.51	8.189
341.72	8.247
341.93	8.310
342.14	8.450
342.35	8.500
342.56	8.433
342.77	8.484
342.98	8.485
343.18	8.431
343.39	8.417
343.60	8.403
343.81	8.341
344.02	8.366
344.23	8.341
344.44	8.263
344.65	8.259
344.85	8.302
345.06	8.321
345.27	8.338
345.48	8.345
345.69	8.293
345.90	8.298
346.11	8.322
346.32	8.342
346.52	8.413
346.73	8.515
346.94	8.573
347.15	8.509
347.36	8.513
347.57	8.489
347.78	8.490
347.98	8.629
348.19	8.724
348.40	8.770
348.61	8.720
348.82	8.694
349.03	8.669
349.24	8.679
349.44	8.764
349.65	8.782
349.86	8.811
350.07	8.938
350.28	8.946
350.49	8.968
350.70	8.938
350.90	8.989
351.11	9.000
351.32	9.000
351.53	9.036
351.74	9.064
351.95	9.032
352.15	9.061
352.36	9.027
352.57	9.023
352.78	8.998
352.99	9.020
353.20	9.058
353.40	9.097
353.61	9.130
353.82	9.078
354.03	9.097
354.24	9.173
354.45	9.226
354.65	9.233
354.86	9.225
355.07	9.287
355.28	9.342
355.49	9.368
355.70	9.435
355.90	9.414
356.11	9.441
356.32	9.401
356.53	9.409
356.74	9.394
356.94	9.496
357.15	9.483
357.36	9.452
357.57	9.467
357.78	9.501
357.99	9.443
358.19	9.526
358.40	9.529
358.61	9.607
358.82	9.600
359.03	9.608
359.23	9.531
359.44	9.635
359.65	9.656
359.86	9.660
360.07	9.635
360.27	9.679
360.48	9.648
360.69	9.682
360.90	9.694
361.11	9.751
361.31	9.775
361.52	9.793
361.73	9.749
361.94	9.784
362.15	9.790
362.35	9.851
362.56	9.863
362.77	9.901
362.98	9.942
363.18	9.947
363.39	9.970
363.60	10.034
363.81	10.075
364.02	10.059
364.22	10.080
364.43	10.151
364.64	10.143
364.85	10.187
365.05	10.185
365.26	10.244
365.47	10.240
365.68	10.253
365.89	10.259
366.09	10.279
366.30	10.361
366.51	10.332
366.72	10.305
366.92	10.343
367.13	10.328
367.34	10.365
367.55	10.315
367.75	10.368
367.96	10.397
368.17	10.425
368.38	10.468
368.58	10.474
368.79	10.517
369.00	10.536
369.21	10.541
369.41	10.602
369.62	10.648
369.83	10.688
370.04	10.723
370.24	10.722
370.45	10.692
370.66	10.721
370.87	10.762
371.07	10.813
371.28	10.843
371.49	10.875
371.70	10.863
371.90	10.886
372.11	10.879
372.32	10.881
372.53	10.871
372.73	10.924
372.94	10.913
373.15	10.932
373.36	10.973
373.56	11.012
373.77	11.016
373.98	11.054
374.19	11.037
374.39	11.085
374.60	11.140
374.81	11.176
375.01	11.201
375.22	11.238
375.43	11.269
375.64	11.285
375.84	11.273
376.05	11.328
376.26	11.376
376.46	11.462
376.67	11.490
376.88	11.502
377.09	11.517
377.29	11.538
377.50	11.564
377.71	11.611
377.91	11.625
378.12	11.647
378.33	11.605
378.54	11.607
378.74	11.569
378.95	11.597
379.16	11.550
379.36	11.557
379.57	11.600
379.78	11.600
379.99	11.602
380.19	11.620
380.40	11.656
380.61	11.693
380.81	11.721
381.02	11.767
381.23	11.795
381.43	11.843
381.64	11.912
381.85	11.917
382.05	11.948
382.26	11.987
382.47	11.971
382.67	12.031
382.88	12.074
383.09	12.079
383.30	12.092
383.50	12.108
383.71	12.197
383.92	12.224
384.12	12.249
384.33	12.269
384.54	12.247
384.74	12.301
384.95	12.295
385.16	12.323
385.36	12.325
385.57	12.355
385.78	12.345
385.98	12.345
386.19	12.363
386.40	12.397
386.60	12.425
386.81	12.459
387.02	12.466
387.22	12.505
387.43	12.533
387.64	12.588
387.84	12.638
388.05	12.696
388.26	12.713
388.46	12.739
388.67	12.754
388.88	12.774
389.08	12.830
389.29	12.855
389.49	12.891
389.70	12.895
389.91	12.913
390.11	12.920
390.32	12.934
390.53	12.937
390.73	12.936
390.94	12.946
391.15	12.944
391.35	12.925
391.56	12.990
391.77	12.975
391.97	12.987
392.18	13.008
392.38	12.997
392.59	13.025
392.80	13.070
393.00	13.118
393.21	13.156
393.42	13.201
393.62	13.237
393.83	13.235
394.04	13.263
394.24	13.320
394.45	13.338
394.65	13.378
394.86	13.380
395.07	13.417
395.27	13.418
395.48	13.432
395.68	13.475
395.89	13.505
396.10	13.545
396.30	13.591
396.51	13.592
396.72	13.614
396.92	13.662
397.13	13.690
397.33	13.712
397.54	13.762
397.75	13.774
397.95	13.798
398.16	13.806
398.36	13.815
398.57	13.852
398.78	13.861
398.98	13.904
399.19	13.932
399.39	13.958
399.60	13.967
399.81	13.957
400.01	14.006
400.22	14.007
400.42	14.029
400.63	14.041
400.84	14.072
401.04	14.110
401.25	14.100
401.45	14.085
401.66	14.111
401.86	14.128
402.07	14.173
402.28	14.173
402.48	14.208
402.69	14.275
402.89	14.302
403.10	14.286
403.31	14.303
403.51	14.345
403.72	14.378
403.92	14.413
404.13	14.433
404.33	14.477
404.54	14.492
404.75	14.522
404.95	14.523
405.16	14.524
405.36	14.560
405.57	14.590
405.77	14.608
405.98	14.631
406.18	14.649
406.39	14.688
406.60	14.684
406.80	14.725
407.01	14.728
407.21	14.741
407.42	14.797
407.62	14.808
407.83	14.833
408.03	14.912
408.24	14.955
408.45	14.987
408.65	14.992
408.86	15.040
409.06	15.073
409.27	15.122
409.47	15.162
409.68	15.207
409.88	15.241
410.09	15.248
410.29	15.240
410.50	15.238
410.71	15.271
410.91	15.264
411.12	15.289
411.32	15.297
411.53	15.290
411.73	15.320
411.94	15.357
412.14	15.388
412.35	15.429
412.55	15.469
412.76	15.504
412.96	15.519
413.17	15.582
413.37	15.606
413.58	15.669
413.78	15.739
413.99	15.738
414.19	15.711
414.40	15.719
414.61	15.742
414.81	15.739
415.02	15.731
415.22	15.747
415.43	15.729
415.63	15.704
415.84	15.704
416.04	15.701
416.25	15.724
416.45	15.758
416.66	15.783
416.86	15.819
417.07	15.831
417.27	15.872
417.48	15.882
417.68	15.944
417.89	15.994
418.09	15.997
418.30	16.015
418.50	16.033
418.71	16.041
418.91	16.061
419.12	16.059
419.32	16.075
419.53	16.082
419.73	16.112
419.94	16.090
420.14	16.112
420.34	16.137
420.55	16.146
420.75	16.188
420.96	16.218
421.16	16.223
421.37	16.237
421.57	16.259
421.78	16.291
421.98	16.303
422.19	16.356
422.39	16.372
422.60	16.374
422.80	16.413
423.01	16.412
423.21	16.433
423.42	16.471
423.62	16.487
423.83	16.507
424.03	16.542
424.23	16.569
424.44	16.567
424.64	16.593
424.85	16.641
425.05	16.659
425.26	16.702
425.46	16.727
425.67	16.746
425.87	16.792
426.08	16.834
426.28	16.865
426.48	16.888
426.69	16.941
426.89	16.973
427.10	16.993
427.30	17.036
427.51	17.044
427.71	17.071
427.92	17.109
428.12	17.140
428.32	17.151
428.53	17.146
428.73	17.180
428.94	17.206
429.14	17.209
429.35	17.236
429.55	17.251
429.76	17.295
429.96	17.306
430.16	17.296
430.37	17.336
430.57	17.352
430.78	17.362
430.98	17.368
431.19	17.372
431.39	17.394
431.59	17.416
431.80	17.421
432.00	17.410
432.21	17.421
432.41	17.424
432.61	17.386
432.82	17.414
433.02	17.432
433.23	17.447
433.43	17.452
433.64	17.451
433.84	17.440
434.04	17.467
434.25	17.493
434.45	17.528
434.66	17.593
434.86	17.640
435.06	17.664
435.27	17.703
435.47	17.725
435.68	17.785
435.88	17.829
436.08	17.854
436.29	17.855
436.49	17.863
436.70	17.867
436.90	17.867
437.10	17.894
437.31	17.897
437.51	17.907
437.71	17.943
437.92	17.917
438.12	17.910
438.33	17.926
438.53	17.951
438.73	17.976
438.94	17.991
439.14	18.018
439.35	18.051
439.55	18.072
439.75	18.074
439.96	18.084
440.16	18.127
440.36	18.146
440.57	18.181
440.77	18.190
440.97	18.223
441.18	18.244
441.38	18.248
441.59	18.253
441.79	18.291
441.99	18.321
442.20	18.335
442.40	18.361
442.60	18.408
442.81	18.418
443.01	18.444
443.21	18.426
443.42	18.455
443.62	18.465
443.83	18.481
444.03	18.485
444.23	18.494
444.44	18.503
444.64	18.498
444.84	18.509
445.05	18.519
445.25	18.528
445.45	18.540
445.66	18.530
445.86	18.551
446.06	18.550
446.27	18.561
446.47	18.571
446.67	18.591
446.88	18.627
447.08	18.640
447.28	18.651
447.49	18.683
447.69	18.721
447.89	18.756
448.10	18.773
448.30	18.825
448.50	18.856
448.71	18.900
448.91	18.925
449.11	18.916
449.32	18.967
449.52	19.025
449.72	19.049
449.93	19.067
450.13	19.086
450.33	19.105
450.53	19.128
450.74	19.144
450.94	19.149
451.14	19.161
451.35	19.181
451.55	19.171
451.75	19.187
451.96	19.190
452.16	19.175
452.36	19.190
452.57	19.220
452.77	19.225
452.97	19.237
453.17	19.250
453.38	19.267
453.58	19.300
453.78	19.324
453.99	19.308
454.19	19.329
454.39	19.354
454.59	19.376
454.80	19.413
455.00	19.421
455.20	19.451
455.41	19.466
455.61	19.504
455.81	19.514
456.01	19.528
456.22	19.575
456.42	19.584
456.62	19.621
456.83	19.648
457.03	19.645
457.23	19.665
457.43	19.669
457.64	19.669
457.84	19.671
458.04	19.676
458.25	19.688
458.45	19.704
458.65	19.703
458.85	19.723
459.06	19.711
459.26	19.714
459.46	19.720
459.66	19.718
459.87	19.748
460.07	19.751
460.27	19.776
460.47	19.777
460.68	19.776
460.88	19.801
461.08	19.811
461.28	19.858
461.49	19.884
461.69	19.923
461.89	19.954
462.09	19.968
462.30	20.003
462.50	20.025
462.70	20.058
462.90	20.089
463.11	20.120
463.31	20.132
463.51	20.135
463.71	20.134
463.92	20.151
464.12	20.182
464.32	20.218
464.52	20.230
464.72	20.239
464.93	20.248
465.13	20.278
465.33	20.285
465.53	20.283
465.74	20.284
465.94	20.297
466.14	20.316
466.34	20.313
466.54	20.312
466.75	20.318
466.95	20.338
467.15	20.354
467.35	20.349
467.56	20.358
467.76	20.396
467.96	20.416
468.16	20.461
468.36	20.450
468.57	20.454
468.77	20.453
468.97	20.471
469.17	20.472
469.37	20.487
469.58	20.507
469.78	20.515
469.98	20.524
470.18	20.557
470.38	20.560
470.59	20.598
470.79	20.623
470.99	20.675
471.19	20.684
471.39	20.706
471.60	20.723
471.80	20.737
472.00	20.766
472.20	20.777
472.40	20.779
472.61	20.786
472.81	20.776
473.01	20.788
473.21	20.787
473.41	20.806
473.61	20.832
473.82	20.846
474.02	20.874
474.22	20.904
474.42	20.920
474.62	20.962
474.82	20.980
475.03	21.022
475.23	21.050
475.43	21.090
475.63	21.097
475.83	21.102
476.03	21.134
476.24	21.127
476.44	21.116
476.64	21.135
476.84	21.141
477.04	21.162
477.24	21.164
477.45	21.178
477.65	21.169
477.85	21.184
478.05	21.185
478.25	21.190
478.45	21.210
478.65	21.230
478.86	21.247
479.06	21.241
479.26	21.247
479.46	21.262
479.66	21.261
479.86	21.286
480.06	21.293
480.27	21.309
480.47	21.327
480.67	21.324
480.87	21.329
481.07	21.341
481.27	21.343
481.47	21.349
481.68	21.377
481.88	21.392
482.08	21.390
482.28	21.418
482.48	21.438
482.68	21.479
482.88	21.591
483.08	21.921
483.29	22.345
483.49	22.608
483.69	22.541
483.89	22.411
484.09	22.379
484.29	22.356
484.49	22.345
484.69	22.356
484.89	22.368
485.10	22.356
485.30	22.160
485.50	21.774
485.70	21.444
485.90	21.441
486.10	21.557
486.30	21.594
486.50	21.636
486.70	21.682
486.90	21.716
487.11	21.768
487.31	21.800
487.51	21.822
487.71	21.840
487.91	21.830
488.11	21.831
488.31	21.831
488.51	21.826
488.71	21.842
488.91	21.833
489.11	21.842
489.32	21.838
489.52	21.851
489.72	21.874
489.92	21.895
490.12	21.935
490.32	21.971
490.52	22.004
490.72	22.026
490.92	22.047
491.12	22.081
491.32	22.073
491.52	22.073
491.72	22.081
491.92	22.073
492.13	22.078
492.33	22.068
492.53	22.074
492.73	22.085
492.93	22.100
493.13	22.104
493.33	22.110
493.53	22.148
493.73	22.183
493.93	22.197
494.13	22.244
494.33	22.270
494.53	22.320
494.73	22.337
494.93	22.366
495.13	22.411
495.33	22.422
495.53	22.440
495.73	22.427
495.94	22.441
496.14	22.455
496.34	22.473
496.54	22.472
496.74	22.479
496.94	22.502
497.14	22.499
497.34	22.477
497.54	22.481
497.74	22.481
497.94	22.508
498.14	22.505
498.34	22.528
498.54	22.545
498.74	22.564
498.94	22.584
499.14	22.587
499.34	22.606
499.54	22.621
499.74	22.642
499.94	22.658
500.14	22.680
500.34	22.718
500.54	22.730
500.74	22.731
500.94	22.762
501.14	22.779
501.34	22.785
501.54	22.796
501.74	22.802
501.94	22.815
502.14	22.832
502.34	22.850
502.54	22.846
502.74	22.850
502.94	22.867
503.14	22.870
503.34	22.865
503.54	22.885
503.74	22.904
503.94	22.937
504.14	22.939
504.34	22.953
504.54	22.964
504.74	22.985
504.94	23.000
505.14	23.002
505.34	23.029
505.54	23.054
505.74	23.051
505.94	23.058
506.14	23.080
506.34	23.116
506.54	23.130
506.74	23.152
506.94	23.171
507.14	23.182
507.34	23.186
507.54	23.180
507.74	23.180
507.94	23.201
508.14	23.219
508.34	23.212
508.54	23.213
508.74	23.217
508.94	23.218
509.13	23.226
509.33	23.236
509.53	23.257
509.73	23.259
509.93	23.279
510.13	23.294
510.33	23.301
510.53	23.328
510.73	23.344
510.93	23.364
511.13	23.384
511.33	23.404
511.53	23.413
511.73	23.420
511.93	23.464
512.13	23.481
512.33	23.486
512.53	23.502
512.73	23.510
512.92	23.510
513.12	23.526
513.32	23.532
513.52	23.525
513.72	23.540
513.92	23.551
514.12	23.557
514.32	23.574
514.52	23.594
514.72	23.632
514.92	23.625
515.12	23.656
515.32	23.660
515.52	23.673
515.71	23.691
515.91	23.707
516.11	23.726
516.31	23.737
516.51	23.729
516.71	23.741
516.91	23.735
517.11	23.760
517.31	23.747
517.51	23.752
517.71	23.737
517.90	23.748
518.10	23.761
518.30	23.757
518.50	23.757
518.70	23.775
518.90	23.791
519.10	23.780
519.30	23.781
519.50	23.791
519.69	23.807
519.89	23.842
520.09	23.851
520.29	23.866
520.49	23.895
520.69	23.917
520.89	23.921
521.09	23.930
521.29	23.970
521.48	23.995
521.68	24.036
521.88	24.043
522.08	24.045
522.28	24.073
522.48	24.090
522.68	24.099
522.88	24.088
523.07	24.104
523.27	24.116
523.47	24.127
523.67	24.131
523.87	24.152
524.07	24.174
524.27	24.179
524.47	24.170
524.66	24.177
524.86	24.177
525.06	24.200
525.26	24.209
525.46	24.215
525.66	24.208
525.85	24.216
526.05	24.197
526.25	24.200
526.45	24.235
526.65	24.254
526.85	24.255
527.05	24.266
527.24	24.293
527.44	24.330
527.64	24.390
527.84	24.492
528.04	24.582
528.24	24.645
528.43	24.673
528.63	24.671
528.83	24.665
529.03	24.666
529.23	24.663
529.43	24.652
529.62	24.637
529.82	24.611
530.02	24.550
530.22	24.472
530.42	24.409
530.62	24.360
530.81	24.334
531.01	24.342
531.21	24.347
531.41	24.369
531.61	24.394
531.80	24.434
532.00	24.476
532.20	24.521
532.40	24.562
532.60	24.575
532.79	24.600
532.99	24.635
533.19	24.626
533.39	24.638
533.59	24.650
533.78	24.655
533.98	24.671
534.18	24.658
534.38	24.649
534.58	24.647
534.77	24.659
534.97	24.664
535.17	24.658
535.37	24.678
535.57	24.695
535.76	24.697
535.96	24.721
536.16	24.739
536.36	24.781
536.56	24.809
536.75	24.821
536.95	24.831
537.15	24.844
537.35	24.846
537.54	24.856
537.74	24.862
537.94	24.876
538.14	24.882
538.34	24.888
538.53	24.886
538.73	24.885
538.93	24.897
539.13	24.913
539.32	24.935
539.52	24.969
539.72	24.995
539.92	25.005
540.11	25.003
540.31	25.026
540.51	25.021
540.71	25.044
540.90	25.070
541.10	25.073
541.30	25.084
541.50	25.090
541.69	25.093
541.89	25.086
542.09	25.081
542.29	25.085
542.48	25.090
542.68	25.097
542.88	25.080
543.08	25.069
543.27	25.075
543.47	25.069
543.67	25.075
543.87	25.068
544.06	25.097
544.26	25.121
544.46	25.167
544.65	25.175
544.85	25.204
545.05	25.242
545.25	25.268
545.44	25.286
545.64	25.306
545.84	25.302
546.04	25.317
546.23	25.316
546.43	25.313
546.63	25.292
546.82	25.297
547.02	25.304
547.22	25.306
547.42	25.299
547.61	25.316
547.81	25.314
548.01	25.313
548.20	25.325
548.40	25.334
548.60	25.354
548.79	25.384
548.99	25.392
549.19	25.411
549.39	25.429
549.58	25.467
549.78	25.458
549.98	25.486
550.17	25.528
550.37	25.550
550.57	25.570
550.76	25.582
550.96	25.591
551.16	25.608
551.35	25.610
551.55	25.620
551.75	25.613
551.94	25.632
552.14	25.620
552.34	25.631
552.53	25.639
552.73	25.632
552.93	25.638
553.13	25.655
553.32	25.677
553.52	25.671
553.72	25.683
553.91	25.695
554.11	25.713
554.31	25.746
554.50	25.742
554.70	25.743
554.89	25.779
555.09	25.783
555.29	25.785
555.48	25.785
555.68	25.798
555.88	25.798
556.07	25.807
556.27	25.800
556.47	25.801
556.66	25.813
556.86	25.819
557.06	25.829
557.25	25.849
557.45	25.868
557.65	25.884
557.84	25.890
558.04	25.900
558.23	25.897
558.43	25.900
558.63	25.893
558.82	25.936
559.02	25.966
559.22	25.949
559.41	25.969
559.61	25.979
559.81	25.966
560.00	25.980
560.20	26.016
560.39	26.023
560.59	26.042
560.79	26.073
560.98	26.046
561.18	26.062
561.37	26.082
561.57	26.077
561.77	26.071
561.96	26.097
562.16	26.107
562.36	26.099
562.55	26.109
562.75	26.112
562.94	26.100
563.14	26.115
563.34	26.100
563.53	26.126
563.73	26.135
563.92	26.154
564.12	26.159
564.32	26.155
564.51	26.166
564.71	26.185
564.90	26.218
565.10	26.248
565.29	26.273
565.49	26.270
565.69	26.258
565.88	26.252
566.08	26.245
566.27	26.247
566.47	26.258
566.67	26.265
566.86	26.276
567.06	26.282
567.25	26.293
567.45	26.288
567.64	26.303
567.84	26.321
568.04	26.350
568.23	26.364
568.43	26.371
568.62	26.394
568.82	26.381
569.01	26.369
569.21	26.350
569.41	26.331
569.60	26.342
569.80	26.358
569.99	26.354
570.19	26.350
570.38	26.360
570.58	26.368
570.77	26.363
570.97	26.394
571.17	26.406
571.36	26.418
571.56	26.440
571.75	26.449
571.95	26.442
572.14	26.447
572.34	26.457
572.53	26.474
572.73	26.471
572.92	26.496
573.12	26.493
573.31	26.498
573.51	26.516
573.70	26.522
573.90	26.502
574.10	26.510
574.29	26.534
574.49	26.549
574.68	26.551
574.88	26.555
575.07	26.555
575.27	26.564
575.46	26.575
575.66	26.596
575.85	26.605
576.05	26.628
576.24	26.618
576.44	26.629
576.63	26.647
576.83	26.646
577.02	26.675
577.22	26.682
577.41	26.691
577.61	26.709
577.80	26.689
578.00	26.691
578.19	26.687
578.39	26.703
578.58	26.688
578.78	26.672
578.97	26.688
579.17	26.685
579.36	26.693
579.56	26.706
579.75	26.712
579.95	26.739
580.14	26.764
580.34	26.779
580.53	26.805
580.73	26.821
580.92	26.860
581.12	26.865
581.31	26.886
581.51	26.883
581.70	26.890
581.89	26.899
582.09	26.882
582.28	26.878
582.48	26.902
582.67	26.915
582.87	26.927
583.06	26.928
583.26	26.919
583.45	26.925
583.65	26.932
583.84	26.955
584.04	26.954
584.23	26.986
584.43	26.989
584.62	26.988
584.81	26.998
585.01	27.012
585.20	27.004
585.40	27.013
585.59	27.023
585.79	27.038
585.98	27.014
586.18	27.023
586.37	27.035
586.56	27.033
586.76	27.017
586.95	27.023
587.15	27.011
587.34	27.013
587.54	27.037
587.73	27.038
587.92	27.079
588.12	27.061
588.31	27.088
588.51	27.077
588.70	27.080
588.90	27.105
589.09	27.102
589.28	27.090
589.48	27.093
589.67	27.085
589.87	27.092
590.06	27.041
590.25	27.077
590.45	27.060
590.64	27.077
590.84	27.095
591.03	27.090
591.23	27.100
591.42	27.127
591.61	27.128
591.81	27.130
592.00	27.113
592.20	27.150
592.39	27.149
592.58	27.165
592.78	27.170
592.97	27.186
593.17	27.184
593.36	27.184
593.55	27.194
593.75	27.206
593.94	27.214
594.13	27.252
594.33	27.269
594.52	27.276
594.72	27.294
594.91	27.295
595.10	27.309
595.30	27.314
595.49	27.339
595.68	27.354
595.88	27.359
596.07	27.366
596.27	27.355
596.46	27.337
596.65	27.327
596.85	27.289
597.04	27.294
597.23	27.281
597.43	27.292
597.62	27.287
597.81	27.283
598.01	27.266
598.20	27.272
598.40	27.286
598.59	27.277
598.78	27.293
598.98	27.328
599.17	27.333
599.36	27.349
599.56	27.352
599.75	27.335
599.94	27.334
600.14	27.370
600.33	27.379
600.52	27.378
600.72	27.407
600.91	27.405
601.10	27.415
601.30	27.439
601.49	27.445
601.68	27.464
601.88	27.491
602.07	27.508
602.26	27.509
602.46	27.517
602.65	27.537
602.84	27.528
603.04	27.556
603.23	27.554
603.42	27.533
603.62	27.526
603.81	27.532
604.00	27.523
604.20	27.514
604.39	27.527
604.58	27.545
604.77	27.525
604.97	27.553
605.16	27.535
605.35	27.550
605.55	27.564
605.74	27.552
605.93	27.553
606.13	27.579
606.32	27.597
606.51	27.605
606.70	27.611
606.90	27.627
607.09	27.623
607.28	27.659
607.48	27.657
607.67	27.681
607.86	27.722
608.05	27.734
608.25	27.705
608.44	27.723
608.63	27.767
608.83	27.762
609.02	27.752
609.21	27.747
609.40	27.753
609.60	27.763
609.79	27.741
609.98	27.746
610.17	27.759
610.37	27.800
610.56	27.795
610.75	27.772
610.95	27.768
611.14	27.783
611.33	27.787
611.52	27.776
611.72	27.768
611.91	27.773
612.10	27.789
612.29	27.810
612.49	27.788
612.68	27.831
612.87	27.826
613.06	27.856
613.26	27.888
613.45	27.937
613.64	27.948
613.83	27.971
614.03	27.972
614.22	27.984
614.41	27.952
614.60	27.987
614.79	27.975
614.99	27.968
615.18	27.948
615.37	27.936
615.56	27.928
615.76	27.957
615.95	27.974
616.14	27.993
616.33	27.986
616.53	27.998
616.72	28.000
616.91	27.998
617.10	28.033
617.29	28.046
617.49	28.045
617.68	28.034
617.87	28.013
618.06	28.013
618.25	28.024
618.45	28.014
618.64	28.006
618.83	28.002
619.02	27.996
619.21	27.960
619.41	27.969
619.60	27.966
619.79	27.988
619.98	28.021
620.17	28.041
620.37	28.019
620.56	28.037
620.75	28.054
620.94	28.054
621.13	28.037
621.33	28.029
621.52	28.028
621.71	28.061
621.90	28.045
622.09	28.031
622.28	28.014
622.48	28.076
622.67	28.074
622.86	28.083
623.05	28.105
623.24	28.143
623.44	28.196
623.63	28.196
623.82	28.192
624.01	28.198
624.20	28.202
624.39	28.201
624.59	28.173
624.78	28.154
624.97	28.179
625.16	28.164
625.35	28.144
625.54	28.125
625.73	28.121
625.93	28.146
626.12	28.155
626.31	28.172
626.50	28.175
626.69	28.171
626.88	28.194
627.07	28.183
627.27	28.186
627.46	28.188
627.65	28.201
627.84	28.227
628.03	28.221
628.22	28.221
628.41	28.207
628.61	28.197
628.80	28.236
628.99	28.231
629.18	28.226
629.37	28.244
629.56	28.244
629.75	28.254
629.94	28.267
630.14	28.276
630.33	28.283
630.52	28.287
630.71	28.318
630.90	28.288
631.09	28.292
631.28	28.302
631.47	28.286
631.66	28.325
631.86	28.349
632.05	28.333
632.24	28.323
632.43	28.336
632.62	28.326
632.81	28.298
633.00	28.309
633.19	28.321
633.38	28.338
633.57	28.353
633.77	28.339
633.96	28.334
634.15	28.328
634.34	28.318
634.53	28.303
634.72	28.332
634.91	28.392
635.10	28.382
635.29	28.385
635.48	28.394
635.67	28.399
635.86	28.419
636.05	28.399
636.25	28.444
636.44	28.480
636.63	28.477
636.82	28.465
637.01	28.454
637.20	28.481
637.39	28.473
637.58	28.452
637.77	28.471
637.96	28.470
638.15	28.491
638.34	28.477
638.53	28.482
638.72	28.510
638.91	28.514
639.10	28.519
639.30	28.553
639.49	28.580
639.68	28.621
639.87	28.609
640.06	28.643
640.25	28.663
640.44	28.676
640.63	28.680
640.82	28.685
641.01	28.676
641.20	28.662
641.39	28.624
641.58	28.634
641.77	28.624
641.96	28.633
642.15	28.601
642.34	28.582
642.53	28.560
642.72	28.553
642.91	28.536
643.10	28.555
643.29	28.587
643.48	28.585
643.67	28.617
643.86	28.621
644.05	28.611
644.24	28.613
644.43	28.614
644.62	28.647
644.81	28.682
645.00	28.722
645.19	28.728
645.38	28.713
645.57	28.744
645.76	28.713
645.95	28.701
646.14	28.724
646.33	28.742
646.52	28.765
646.71	28.750
646.90	28.715
647.09	28.713
647.28	28.757
647.47	28.737
647.66	28.760
647.85	28.770
648.04	28.806
648.23	28.817
648.42	28.819
648.61	28.814
648.80	28.841
648.99	28.842
649.18	28.830
649.37	28.786
649.56	28.827
649.75	28.802
649.94	28.806
650.13	28.798
650.32	28.785
650.51	28.805
650.70	28.817
650.89	28.811
651.08	28.834
651.27	28.857
651.46	28.865
651.65	28.838
651.83	28.839
652.02	28.827
652.21	28.825
652.40	28.857
652.59	28.844
652.78	28.855
652.97	28.855
653.16	28.856
653.35	28.843
653.54	28.866
653.73	28.887
653.92	28.901
654.11	28.915
654.30	28.938
654.49	28.937
654.68	28.942
654.86	28.946
655.05	28.941
655.24	28.936
655.43	28.950
655.62	28.954
655.81	28.937
656.00	28.971
656.19	28.935
656.38	28.924
656.57	28.927
656.76	28.903
656.95	28.879
657.13	28.873
657.32	28.901
657.51	28.911
657.70	28.915
657.89	28.937
658.08	28.898
658.27	28.956
658.46	28.952
658.65	28.930
658.84	28.966
659.02	28.999
659.21	29.035
659.40	29.036
659.59	29.060
659.78	29.045
659.97	29.035
660.16	29.026
660.35	29.040
660.54	29.076
660.72	29.104
660.91	29.088
661.10	29.105
661.29	29.090
661.48	29.119
661.67	29.105
661.86	29.147
662.05	29.174
662.23	29.234
662.42	29.216
662.61	29.206
662.80	29.221
662.99	29.258
663.18	29.244
663.37	29.278
663.56	29.267
663.74	29.285
663.93	29.273
664.12	29.287
664.31	29.265
664.50	29.275
664.69	29.289
664.87	29.256
665.06	29.268
665.25	29.251
665.44	29.230
665.63	29.212
665.82	29.202
666.01	29.214
666.19	29.200
666.38	29.202
666.57	29.226
666.76	29.204
666.95	29.252
667.14	29.245
667.32	29.249
667.51	29.251
667.70	29.235
667.89	29.264
668.08	29.259
668.26	29.296
668.45	29.294
668.64	29.291
668.83	29.292
669.02	29.280
669.21	29.308
669.39	29.331
669.58	29.349
669.77	29.373
669.96	29.340
670.15	29.362
670.33	29.361
670.52	29.398
670.71	29.355
670.90	29.341
671.09	29.336
671.27	29.333
671.46	29.297
671.65	29.284
671.84	29.295
672.03	29.312
672.21	29.275
672.40	29.242
672.59	29.249
672.78	29.296
672.96	29.335
673.15	29.348
673.34	29.345
673.53	29.387
673.72	29.395
673.90	29.416
674.09	29.418
674.28	29.440
674.47	29.424
674.65	29.383
674.84	29.381
675.03	29.368
675.22	29.376
675.41	29.367
675.59	29.359
675.78	29.382
675.97	29.365
676.16	29.368
676.34	29.384
676.53	29.439
676.72	29.468
676.91	29.485
677.09	29.483
677.28	29.447
677.47	29.451
677.66	29.450
677.84	29.444
678.03	29.436
678.22	29.431
678.41	29.439
678.59	29.399
678.78	29.400
678.97	29.438
679.15	29.446
679.34	29.468
679.53	29.433
679.72	29.458
679.90	29.484
680.09	29.483
680.28	29.511
680.47	29.504
680.65	29.528
680.84	29.538
681.03	29.501
681.21	29.513
681.40	29.562
681.59	29.593
681.78	29.578
681.96	29.527
682.15	29.542
682.34	29.502
682.52	29.514
682.71	29.510
682.90	29.488
683.08	29.468
683.27	29.454
683.46	29.421
683.65	29.409
683.83	29.409
684.02	29.462
684.21	29.480
684.39	29.501
684.58	29.502
684.77	29.510
684.95	29.541
685.14	29.577
685.33	29.606
685.51	29.619
685.70	29.637
685.89	29.655
686.07	29.625
686.26	29.633
686.45	29.627
686.63	29.627
686.82	29.646
687.01	29.613
687.20	29.593
687.38	29.599
687.57	29.594
687.75	29.596
687.94	29.553
688.13	29.565
688.31	29.554
688.50	29.575
688.69	29.598
688.87	29.601
689.06	29.643
689.25	29.677
689.43	29.648
689.62	29.643
689.81	29.667
689.99	29.714
690.18	29.705
690.37	29.712
690.55	29.717
690.74	29.702
690.93	29.709
691.11	29.688
691.30	29.681
691.48	29.680
691.67	29.699
691.86	29.688
692.04	29.719
692.23	29.743
692.42	29.769
692.60	29.784
692.79	29.791
692.97	29.787
693.16	29.793
693.35	29.803
693.53	29.834
693.72	29.820
693.90	29.845
694.09	29.841
694.28	29.863
694.46	29.870
694.65	29.870
694.83	29.856
695.02	29.833
695.21	29.868
695.39	29.826
695.58	29.807
695.76	29.827
695.95	29.801
696.14	29.820
696.32	29.755
696.51	29.738
696.69	29.742
696.88	29.737
697.07	29.770
697.25	29.742
697.44	29.747
697.62	29.793
697.81	29.792
697.99	29.818
698.18	29.797
698.37	29.808
698.55	29.786
698.74	29.749
698.92	29.756
699.11	29.727
699.29	29.741
699.48	29.796
699.67	29.797
699.85	29.796
700.04	29.807
700.22	29.831
700.41	29.869
700.59	29.915
700.78	29.966
700.96	29.991
701.15	30.033
701.34	30.079
701.52	30.046
701.71	30.034
701.89	30.067
702.08	30.026
702.26	29.985
702.45	29.956
702.63	29.935
702.82	29.931
703.00	29.925
703.19	29.904
703.38	29.870
703.56	29.910
703.75	29.925
703.93	29.880
704.12	29.879
704.30	29.933
704.49	29.956
704.67	29.975
704.86	29.983
705.04	29.961
705.23	30.016
705.41	30.013
705.60	29.980
705.78	29.999
705.97	30.011
706.15	30.011
706.34	29.961
706.52	29.953
706.71	29.924
706.89	29.921
707.08	29.951
707.26	29.952
707.45	29.955
707.63	29.938
707.82	29.953
708.00	29.972
708.19	30.009
708.37	30.023
708.56	30.003
708.74	29.997
708.93	30.017
709.11	30.038
709.30	29.994
709.48	30.003
709.67	30.053
709.85	30.026
710.04	30.029
710.22	29.998
710.41	29.969
710.59	29.983
710.77	29.982
710.96	29.964
711.14	29.929
711.33	29.933
711.51	29.907
711.70	29.894
711.88	29.899
712.07	29.885
712.25	29.907
712.44	29.961
712.62	29.987
712.80	30.014
712.99	30.019
713.17	30.091
713.36	30.115
713.54	30.156
713.73	30.162
713.91	30.176
714.10	30.170
714.28	30.166
714.46	30.164
714.65	30.184
714.83	30.173
715.02	30.176
715.20	30.138
715.39	30.138
715.57	30.116
715.75	30.134
715.94	30.140
716.12	30.188
716.31	30.191
716.49	30.156
716.68	30.175
716.86	30.193
717.04	30.198
717.23	30.194
717.41	30.167
717.60	30.184
717.78	30.163
717.96	30.108
718.15	30.090
718.33	30.092
718.52	30.133
718.70	30.105
718.88	30.088
719.07	30.046
719.25	30.059
719.44	30.079
719.62	30.071
719.80	30.058
719.99	30.133
720.17	30.120
720.36	30.163
720.54	30.187
720.72	30.197
720.91	30.248
721.09	30.286
721.27	30.301
721.46	30.329
721.64	30.315
721.83	30.333
722.01	30.314
722.19	30.312
722.38	30.294
722.56	30.282
722.74	30.289
722.93	30.271
723.11	30.271
723.30	30.326
723.48	30.342
723.66	30.344
723.85	30.344
724.03	30.385
724.21	30.413
724.40	30.385
724.58	30.397
724.76	30.351
724.95	30.326
725.13	30.364
725.31	30.282
725.50	30.299
725.68	30.328
725.86	30.360
726.05	30.354
726.23	30.385
726.41	30.409
726.60	30.346
726.78	30.317
726.96	30.346
727.15	30.315
727.33	30.352
727.51	30.376
727.70	30.412
727.88	30.370
728.06	30.388
728.25	30.386
728.43	30.405
728.61	30.436
728.80	30.486
728.98	30.459
729.16	30.445
729.34	30.408
729.53	30.330
729.71	30.297
729.89	30.310
730.08	30.274
730.26	30.247
730.44	30.249
730.63	30.242
730.81	30.216
730.99	30.264
731.17	30.272
731.36	30.279
731.54	30.355
731.72	30.350
731.91	30.405
732.09	30.413
732.27	30.425
732.45	30.404
732.64	30.425
732.82	30.459
733.00	30.422
733.19	30.468
733.37	30.464
733.55	30.436
733.73	30.461
733.92	30.478
734.10	30.477
734.28	30.474
734.46	30.529
734.65	30.523
734.83	30.563
735.01	30.555
735.19	30.575
735.38	30.599
735.56	30.614
735.74	30.630
735.92	30.600
736.11	30.651
736.29	30.658
736.47	30.610
736.65	30.623
736.84	30.581
737.02	30.645
737.20	30.611
737.38	30.568
737.57	30.593
737.75	30.537
737.93	30.508
738.11	30.428
738.30	30.453
738.48	30.445
738.66	30.491
738.84	30.575
739.02	30.538
739.21	30.515
739.39	30.552
739.57	30.543
739.75	30.618
739.93	30.593
740.12	30.622
740.30	30.624
740.48	30.617
740.66	30.554
740.85	30.521
741.03	30.512
741.21	30.612
741.39	30.599
741.57	30.646
741.76	30.575
741.94	30.630
742.12	30.607
742.30	30.558
742.48	30.585
742.66	30.693
742.85	30.640
743.03	30.717
743.21	30.649
743.39	30.762
743.57	30.658
743.76	30.688
743.94	30.683
744.12	30.654
744.30	30.724
744.48	30.773
744.66	30.720
744.85	30.762
745.03	30.786
745.21	30.804
745.39	30.740
745.57	30.774
745.75	30.774
745.94	30.721
746.12	30.780
746.30	30.726
746.48	30.687
746.66	30.705
746.84	30.716
747.02	30.668
747.21	30.681
747.39	30.686
747.57	30.679
747.75	30.651
747.93	30.642
748.11	30.696
748.29	30.756
748.48	30.739
748.66	30.680
748.84	30.652
749.02	30.655
749.20	30.563
749.38	30.497
749.56	30.538
749.75	30.547
749.93	30.618
750.11	30.575
750.29	30.594
750.47	30.665
750.65	30.691
750.83	30.660
751.01	30.619
751.19	30.703
751.38	30.743
751.56	30.687
751.74	30.736
751.92	30.744
752.10	30.735
752.28	30.721
752.46	30.693
752.64	30.676
752.82	30.690
753.00	30.785
753.19	30.784
753.37	30.837
753.55	30.854
753.73	30.837
753.91	30.888
754.09	30.903
754.27	30.853
754.45	30.795
754.63	30.812
754.81	30.849
754.99	30.773
755.17	30.777
755.36	30.742
755.54	30.813
755.72	30.843
755.90	30.717
756.08	30.732
756.26	30.762
756.44	30.859
756.62	30.886
756.80	30.872
756.98	30.899
757.16	30.898
757.34	30.901
757.52	30.866
757.70	30.877
757.88	31.010
758.06	31.020
758.24	31.068
758.42	31.074
758.61	31.061
758.79	31.044
758.97	31.003
759.15	30.961
759.33	30.997
759.51	31.017
759.69	31.050
759.87	31.028
760.05	31.037
760.23	31.028
760.41	30.939
760.59	30.938
760.77	31.007
760.95	31.110
761.13	31.133
761.31	31.125
761.49	31.091
761.67	31.017
761.85	30.952
762.03	30.934
762.21	30.927
762.39	30.978
762.57	30.904
762.75	30.821
762.93	30.767
763.11	30.765
763.29	30.718
763.47	30.708
763.65	30.730
763.83	30.737
764.01	30.755
764.19	30.722
764.37	30.735
764.55	30.779
764.73	30.795
764.91	30.802
765.09	30.837
765.27	30.841
765.45	30.877
765.63	30.868
765.81	30.896
765.99	30.845
766.17	30.895
766.35	30.916
766.53	30.941
766.71	31.012
766.89	31.050
767.07	31.037
767.25	31.078
767.43	31.035
767.61	31.098
767.78	31.049
767.96	31.135
768.14	31.123
768.32	31.089
768.50	31.061
768.68	31.027
768.86	30.959
769.04	30.901
769.22	30.918
769.40	30.991
769.58	31.009
769.76	31.116
769.94	31.081
770.12	31.043
770.30	31.026
770.48	30.964
770.66	30.915
770.84	30.972
771.01	31.006
771.19	31.059
771.37	31.021
771.55	30.940
771.73	30.898
771.91	31.004
772.09	31.094
772.27	31.127
772.45	31.175
772.63	31.230
772.81	31.156
772.99	31.160
773.16	31.104
773.34	31.155
773.52	31.247
773.70	31.206
773.88	31.131
774.06	31.105
774.24	31.129
774.42	31.247
774.60	31.247
774.78	31.324
774.95	31.384
775.13	31.423
775.31	31.350
775.49	31.357
775.67	31.376
775.85	31.305
776.03	31.271
776.21	31.203
776.38	31.128
776.56	31.085
776.74	31.115
776.92	31.122
777.10	31.120
777.28	31.132
777.46	31.185
777.64	31.249
777.81	31.325
777.99	31.308
778.17	31.288
778.35	31.315
778.53	31.425
778.71	31.473
778.89	31.449
779.06	31.395
779.24	31.402
779.42	31.306
779.60	31.329
779.78	31.318
779.96	31.368
780.13	31.427
780.31	31.378
780.49	31.271
780.67	31.195
780.85	31.182
781.03	31.328
781.20	31.310
781.38	31.303
781.56	31.155
781.74	31.164
781.92	31.122
782.10	31.101
782.27	31.058
782.45	31.065
782.63	31.061
782.81	31.007
782.99	30.898
783.17	30.918
783.34	30.857
783.52	30.940
783.70	30.972
783.88	31.074
784.06	31.130
784.23	31.204
784.41	31.265
784.59	31.206
784.77	31.304
784.95	31.318
785.12	31.312
785.30	31.347
785.48	31.395
785.66	31.325
785.83	31.269
786.01	31.341
786.19	31.316
786.37	31.203
786.55	31.309
786.72	31.299
786.90	31.376
787.08	31.371
787.26	31.441
787.43	31.340
787.61	31.446
787.79	31.469
787.97	31.313
788.15	31.326
788.32	31.486
788.50	31.448
788.68	31.468
788.86	31.387
789.03	31.419
789.21	31.383
789.39	31.425
789.57	31.299
789.74	31.298
789.92	31.367
790.10	31.389
790.28	31.298
790.45	31.345
790.63	31.239
790.81	31.223
790.99	31.221
791.16	31.191
791.34	31.157
791.52	31.303
791.69	31.214
791.87	31.174
792.05	31.178
792.23	31.203
792.40	31.006
792.58	31.061
792.76	31.117
792.94	31.071
793.11	31.062
793.29	31.049
793.47	30.970
793.64	31.115
793.82	31.145
794.00	31.138
794.18	31.047
794.35	31.214
794.53	31.266
794.71	31.266
794.88	31.362
795.06	31.478
795.24	31.615
795.41	31.623
795.59	31.523
795.77	31.579
795.94	31.593
796.12	31.730
796.30	31.803
796.48	31.801
796.65	31.712
796.83	31.693
797.01	31.618
797.18	31.550
797.36	31.576
797.54	31.663
797.71	31.587
797.89	31.551
798.07	31.520
798.24	31.539
798.42	31.616
798.60	31.688
798.77	31.747
798.95	31.773
799.13	31.795
799.30	31.796
799.48	31.775
799.66	31.720
799.83	31.699
800.01	31.599
800.18	31.367
800.36	31.286
800.54	31.280
800.71	31.245
800.89	31.271
801.07	31.267
801.24	31.327
801.42	31.377
801.60	31.521
801.77	31.603
801.95	31.715
802.12	31.861
802.30	31.871
802.48	31.830
802.65	31.936
802.83	31.953
803.01	31.980
803.18	31.924
803.36	31.837
803.53	31.796
803.71	31.794
803.89	31.761
804.06	31.633
804.24	31.670
804.41	31.680
804.59	31.527
804.77	31.500
804.94	31.456
805.12	31.392
805.29	31.444
805.47	31.399
805.65	31.441
805.82	31.432
806.00	31.633
806.17	31.653
806.35	31.672
806.53	31.680
806.70	31.748
806.88	31.706
807.05	31.723
807.23	31.598
807.40	31.592
807.58	31.458
807.76	31.379
807.93	31.373
808.11	31.288
808.28	31.304
808.46	31.299
808.63	31.169
808.81	31.270
808.99	31.281
809.16	31.383
809.34	31.383
809.51	31.445
809.69	31.539
809.86	31.453
810.04	31.440
810.21	31.390
810.39	31.352
810.57	31.319
810.74	31.255
810.92	31.100
811.09	30.952
811.27	30.979
811.44	30.929
811.62	30.972
811.79	30.981
811.97	30.953
812.14	31.085
812.32	31.111
812.49	31.058
812.67	31.203
812.84	31.247
813.02	31.341
813.19	31.363
813.37	31.425
813.55	31.460
813.72	31.442
813.90	31.467
814.07	31.464
814.25	31.456
814.42	31.651
814.60	31.584
814.77	31.782
814.95	31.728
815.12	31.777
815.30	31.715
815.47	31.755
815.65	31.833
815.82	31.955
816.00	31.876
816.17	31.955
816.35	31.921
816.52	31.938
816.69	31.950
816.87	31.948
817.04	31.771
817.22	31.910
817.39	31.943
817.57	31.920
817.74	31.948
817.92	31.984
818.09	31.967
818.27	31.961
818.44	31.875
818.62	31.795
818.79	32.007
818.97	32.168
819.14	32.124
819.32	32.052
819.49	32.052
819.66	31.956
819.84	31.906
820.01	31.885
820.19	31.850
820.36	31.820
820.54	31.861
820.71	31.683
820.89	31.654
821.06	31.615
821.23	31.579
821.41	31.426
821.58	31.335
821.76	31.185
821.93	31.122
822.11	31.078
822.28	31.075
822.45	31.087
822.63	31.118
822.80	31.119
822.98	31.140
823.15	31.151
823.33	31.196
823.50	31.236
823.67	31.292
823.85	31.339
824.02	31.391
824.20	31.458
824.37	31.500
824.54	31.559
824.72	31.612
824.89	31.653
825.07	31.729
825.24	31.786
825.41	31.784
825.59	31.813
825.76	31.806
825.94	31.813
826.11	31.801
826.28	31.823
826.46	31.796
826.63	31.764
826.80	31.690
826.98	31.578
827.15	31.480
827.33	31.489
827.50	31.517
827.67	31.554
827.85	31.563
828.02	31.606
828.19	31.606
828.37	31.624
828.54	31.662
828.72	31.737
828.89	31.815
829.06	31.909
829.24	31.953
829.41	31.990
829.58	32.030
829.76	32.107
829.93	32.076
830.10	32.134
830.28	32.107
830.45	32.124
830.62	32.070
830.80	32.094
830.97	32.056
831.14	32.126
831.32	31.974
831.49	32.042
831.66	32.065
831.84	32.069
832.01	31.984
832.18	32.075
832.36	32.041
832.53	32.069
832.70	32.105
832.88	32.100
833.05	32.154
833.22	32.176
833.40	32.102
833.57	31.967
833.74	31.900
833.91	31.889
834.09	31.798
834.26	31.812
834.43	31.847
834.61	31.804
834.78	31.810
834.95	31.800
835.13	31.834
835.30	31.855
835.47	31.905
835.64	31.967
835.82	32.002
835.99	32.121
836.16	32.169
836.34	32.206
836.51	32.263
836.68	32.260
836.85	32.178
837.03	32.145
837.20	32.108
837.37	32.128
837.54	32.104
837.72	32.124
837.89	32.121
838.06	32.188
838.24	32.075
838.41	31.902
838.58	31.953
838.75	31.906
838.93	31.993
839.10	31.968
839.27	31.935
839.44	31.901
839.62	31.711
839.79	31.632
839.96	31.686
840.13	31.724
840.31	31.743
840.48	31.846
840.65	31.931
840.82	31.934
840.99	32.011
841.17	31.996
841.34	32.064
841.51	32.217
841.68	32.205
841.86	32.046
842.03	31.943
842.20	31.988
842.37	31.898
842.55	31.875
842.72	31.797
842.89	31.514
843.06	31.604
843.23	31.630
843.41	31.407
843.58	31.445
843.75	31.604
843.92	31.886
844.09	32.020
844.27	31.943
844.44	32.099
844.61	32.260
844.78	32.313
844.95	32.261
845.13	31.923
845.30	32.261
845.47	32.306
845.64	32.402
845.81	32.312
845.98	32.426
846.16	32.177
846.33	32.288
846.50	31.822
846.67	32.230
846.84	32.231
847.02	32.774
847.19	32.567
847.36	32.584
847.53	32.633
847.70	32.774
847.87	32.581
848.04	33.056
848.22	32.632
848.39	33.392
848.56	33.531
848.73	33.624
848.90	32.984
849.07	32.843
849.25	33.138
849.42	32.943
849.59	32.632
849.76	32.709
849.93	32.649
850.10	33.045
850.27	32.463
850.45	32.148
850.62	32.066
850.79	32.376
850.96	32.879
851.13	32.528
851.30	32.306
851.47	32.434
851.64	32.571
851.82	32.398
851.99	32.196
852.16	32.748
852.33	32.779
852.50	32.754
852.67	32.739
852.84	32.400
853.01	32.530
853.18	32.622
853.35	32.880
853.53	33.191
853.70	33.212
853.87	33.293
854.04	32.841
854.21	32.654
854.38	32.759
854.55	32.921
854.72	33.084
854.89	32.659
855.06	33.049
855.23	32.563
855.41	32.115
855.58	32.391
855.75	32.606
855.92	32.720
856.09	33.135
856.26	33.053
856.43	33.248
856.60	32.826
856.77	32.853
856.94	32.408
857.11	32.565
857.28	32.621
857.45	32.434
857.62	32.209
857.80	32.121
857.97	32.140
858.14	32.176
858.31	31.831
858.48	31.977
858.65	32.621
858.82	32.491
858.99	32.374
859.16	32.434
859.33	32.418
859.50	32.532
859.67	32.869
859.84	32.656
860.01	32.850
860.18	32.585
860.35	32.880
860.52	32.413
860.69	33.195
860.86	33.409
861.03	33.516
861.20	33.661
861.37	33.694
861.54	33.830
861.71	34.124
861.88	34.043
862.05	34.697
862.22	34.653
862.39	34.894
862.56	34.418
862.73	34.384
862.90	34.136
863.07	34.013
863.24	33.970
863.41	33.565
863.58	33.135
863.75	33.147
863.92	32.699
864.09	32.838
864.26	32.461
864.43	32.742
864.60	32.689
864.77	32.704
864.94	32.715
865.11	32.831
865.28	32.732
865.45	32.907
865.62	32.680
865.79	32.706
865.96	32.414
866.13	32.393
866.30	32.172
866.47	32.200
866.64	32.144
866.81	31.929
866.98	31.766
867.15	31.871
867.32	31.772
867.49	31.861
867.66	31.984
867.82	32.053
867.99	32.361
868.16	32.610
868.33	32.506
868.50	32.713
868.67	33.035
868.84	32.961
869.01	32.983
869.18	33.184
869.35	33.253
869.52	33.439
869.69	33.759
869.86	33.556
870.03	32.943
870.19	33.153
870.36	33.043
870.53	33.196
870.70	33.192
870.87	33.425
871.04	33.287
871.21	33.018
871.38	32.731
871.55	32.471
871.72	32.608
871.89	33.050
872.05	33.099
872.22	32.738
872.39	32.536
872.56	32.752
872.73	32.642
872.90	32.473
873.07	32.907
873.24	32.979
873.41	32.722
873.57	32.855
873.74	32.747
873.91	32.790
874.08	33.020
874.25	32.949
874.42	32.730
874.59	32.676
874.76	33.001
874.92	32.888
875.09	32.813
875.26	33.045
875.43	32.916
875.60	32.678
875.77	32.504
875.94	32.765
876.11	32.637
876.27	32.666
876.44	32.443
876.61	32.476
876.78	32.152
876.95	32.326
877.12	32.448
877.28	32.393
877.45	32.528
877.62	32.627
877.79	32.476
877.96	32.456
878.13	32.384
878.29	32.584
878.46	32.278
878.63	32.709
878.80	32.529
878.97	32.428
879.14	32.550
879.30	32.446
879.47	32.398
879.64	32.466
879.81	32.508
879.98	32.578
880.14	32.472
880.31	32.640
880.48	32.503
880.65	32.468
880.82	32.324
880.98	32.171
881.15	32.075
881.32	31.919
881.49	31.868
881.66	31.884
881.82	31.844
881.99	31.855
882.16	31.859
882.33	31.869
882.50	31.858
882.66	31.888
882.83	31.932
883.00	31.984
883.17	32.083
883.33	32.123
883.50	32.166
883.67	32.240
883.84	32.307
884.01	32.320
884.17	32.402
884.34	32.443
884.51	32.517
884.68	32.548
884.84	32.587
885.01	32.619
885.18	32.669
885.35	32.679
885.51	32.707
885.68	32.658
885.85	32.772
886.02	32.658
886.18	32.708
886.35	32.667
886.52	32.646
886.69	32.665
886.85	32.632
887.02	32.511
887.19	32.548
887.35	32.510
887.52	32.726
887.69	32.648
887.86	32.474
888.02	32.559
888.19	32.556
888.36	34.573
888.53	32.981
888.69	30.189
888.86	31.757
889.03	33.546
>>>>>End Spectral Data<<<<<
