OOIBase32 Version 2.0.6.5 Data File
++++++++++++++++++++++++++++++++++++
Date: 03-23-2011, 12:16:10
User: Valued Ocean Optics Customer
Spectrometer Serial Number: USB4C01507
Spectrometer Channel: Master
Integration Time (msec): 62
Spectra Averaged: 20
Boxcar Smoothing: 5
Correct for Electrical Dark: Enabled
Time Normalized: Disabled
Dual-beam Reference: Disabled
Reference Channel: Master
Temperature: Not acquired
Spectrometer Type: S4000
ADC Type: USB4000
Number of Pixels in File: 3648
Graph Title: 
>>>>>Begin Spectral Data<<<<<
178.53	147.011
178.74	2163.028
178.96	45.997
179.18	69.038
179.39	-202.725
179.61	-36.867
179.82	-223.510
180.04	39.194
180.25	169.283
180.47	275.534
180.69	-209.330
180.90	49.615
181.12	-250.089
181.33	720.775
181.55	471.477
181.76	-58.000
181.98	334.655
182.20	-15.559
182.41	70.740
182.63	25.038
182.84	31.842
183.06	39.388
183.27	34.065
183.49	28.614
183.71	20.785
183.92	16.876
184.14	25.662
184.35	19.930
184.57	11.613
184.78	22.406
185.00	19.962
185.21	27.237
185.43	21.505
185.65	25.922
185.86	28.178
186.08	29.036
186.29	25.704
186.51	21.189
186.72	22.343
186.94	31.547
187.15	25.396
187.37	39.536
187.58	38.873
187.80	38.171
188.02	20.598
188.23	14.959
188.45	18.210
188.66	28.219
188.88	27.627
189.09	24.995
189.31	24.078
189.52	22.707
189.74	17.648
189.95	14.907
190.17	23.544
190.38	35.444
190.60	33.263
190.82	33.611
191.03	33.902
191.25	36.199
191.46	34.405
191.68	26.823
191.89	31.209
192.11	33.685
192.32	26.910
192.54	25.753
192.75	17.581
192.97	29.622
193.18	26.894
193.40	23.331
193.61	24.862
193.83	26.640
194.04	31.362
194.26	27.892
194.48	28.151
194.69	30.760
194.91	30.568
195.12	34.038
195.34	20.851
195.55	22.876
195.77	28.667
195.98	32.364
196.20	30.971
196.41	27.068
196.63	30.797
196.84	31.773
197.06	31.907
197.27	31.218
197.49	30.711
197.70	34.873
197.92	32.108
198.13	31.645
198.35	19.871
198.56	16.926
198.78	13.732
198.99	14.046
199.21	6.358
199.42	4.511
199.64	1.650
199.85	1.769
200.07	-3.996
200.28	-1.401
200.50	-0.016
200.71	6.678
200.93	10.479
201.14	13.565
201.36	9.031
201.57	18.468
201.79	17.753
202.00	24.419
202.22	21.571
202.43	26.662
202.65	27.171
202.86	20.181
203.08	15.332
203.29	19.771
203.51	18.417
203.72	19.614
203.94	15.116
204.15	13.754
204.37	7.572
204.58	8.879
204.80	9.642
205.01	14.861
205.22	17.313
205.44	19.857
205.65	15.198
205.87	17.383
206.08	15.432
206.30	18.585
206.51	19.607
206.73	21.615
206.94	21.709
207.16	21.697
207.37	17.395
207.59	15.111
207.80	12.971
208.02	14.289
208.23	16.050
208.45	18.677
208.66	14.110
208.88	14.990
209.09	10.935
209.30	10.730
209.52	6.416
209.73	7.965
209.95	9.181
210.16	11.493
210.38	9.883
210.59	11.116
210.81	11.824
211.02	13.767
211.24	6.472
211.45	10.299
211.66	10.399
211.88	10.585
212.09	7.741
212.31	10.156
212.52	8.626
212.74	9.347
212.95	6.046
213.17	2.676
213.38	-0.010
213.60	8.219
213.81	4.299
214.02	7.557
214.24	5.317
214.45	5.539
214.67	1.856
214.88	2.075
215.10	-2.986
215.31	0.009
215.53	2.504
215.74	4.205
215.95	3.685
216.17	2.831
216.38	-1.416
216.60	5.135
216.81	6.505
217.03	7.482
217.24	7.435
217.45	14.597
217.67	12.881
217.88	10.635
218.10	9.108
218.31	11.612
218.53	12.565
218.74	12.463
218.95	7.270
219.17	4.990
219.38	7.121
219.60	6.228
219.81	3.100
220.03	2.182
220.24	3.550
220.45	4.527
220.67	-0.761
220.88	1.901
221.10	3.411
221.31	5.565
221.53	5.738
221.74	4.128
221.95	3.995
222.17	4.058
222.38	3.570
222.60	4.026
222.81	3.539
223.02	4.699
223.24	5.517
223.45	5.702
223.67	5.407
223.88	5.928
224.09	6.004
224.31	7.388
224.52	8.129
224.74	7.769
224.95	6.018
225.16	6.346
225.38	6.922
225.59	5.962
225.81	5.243
226.02	5.887
226.23	6.570
226.45	6.397
226.66	5.274
226.88	5.172
227.09	4.978
227.30	4.833
227.52	4.955
227.73	4.096
227.95	3.782
228.16	3.436
228.37	2.982
228.59	2.614
228.80	2.374
229.02	2.431
229.23	2.086
229.44	2.135
229.66	2.187
229.87	2.048
230.08	2.048
230.30	1.851
230.51	1.801
230.73	1.974
230.94	1.936
231.15	2.434
231.37	2.416
231.58	2.835
231.80	2.820
232.01	2.750
232.22	2.511
232.44	2.978
232.65	3.199
232.86	3.512
233.08	2.785
233.29	2.876
233.51	2.253
233.72	2.784
233.93	3.239
234.15	3.874
234.36	3.999
234.57	3.907
234.79	3.824
235.00	3.880
235.21	3.830
235.43	4.325
235.64	4.539
235.86	5.146
236.07	4.519
236.28	4.599
236.50	4.038
236.71	3.785
236.92	3.520
237.14	2.944
237.35	2.995
237.56	2.918
237.78	2.446
237.99	2.406
238.20	1.952
238.42	2.720
238.63	2.088
238.84	1.394
239.06	1.608
239.27	1.824
239.48	1.661
239.70	1.000
239.91	0.974
240.13	1.204
240.34	1.093
240.55	0.962
240.77	0.677
240.98	0.868
241.19	1.363
241.41	1.326
241.62	1.320
241.83	1.665
242.05	1.906
242.26	2.021
242.47	2.005
242.69	2.199
242.90	2.260
243.11	2.139
243.33	1.995
243.54	1.929
243.75	1.953
243.97	2.157
244.18	2.027
244.39	2.004
244.61	1.924
244.82	2.154
245.03	1.835
245.24	1.943
245.46	2.218
245.67	2.615
245.88	2.708
246.10	2.606
246.31	2.505
246.52	2.447
246.74	2.359
246.95	2.403
247.16	2.335
247.38	2.254
247.59	2.211
247.80	2.207
248.02	2.174
248.23	2.138
248.44	2.207
248.66	2.133
248.87	2.295
249.08	2.459
249.29	2.275
249.51	2.370
249.72	2.475
249.93	2.654
250.15	2.772
250.36	2.915
250.57	2.954
250.79	2.893
251.00	3.066
251.21	2.645
251.42	2.171
251.64	2.477
251.85	2.415
252.06	2.469
252.28	2.429
252.49	2.523
252.70	2.496
252.91	2.412
253.13	2.408
253.34	2.320
253.55	2.385
253.77	2.722
253.98	2.812
254.19	3.056
254.40	3.267
254.62	3.132
254.83	2.913
255.04	3.107
255.26	3.123
255.47	3.294
255.68	3.411
255.89	3.459
256.11	2.834
256.32	2.735
256.53	2.506
256.75	2.417
256.96	2.532
257.17	2.465
257.38	2.159
257.60	2.203
257.81	2.062
258.02	2.014
258.23	1.907
258.45	2.229
258.66	2.118
258.87	1.931
259.09	1.765
259.30	1.667
259.51	1.655
259.72	1.674
259.94	1.693
260.15	1.678
260.36	1.642
260.57	1.658
260.79	1.660
261.00	1.724
261.21	1.759
261.42	1.910
261.64	2.087
261.85	2.303
262.06	2.428
262.27	2.579
262.49	2.692
262.70	2.818
262.91	2.806
263.12	2.795
263.34	2.564
263.55	2.468
263.76	2.184
263.97	2.063
264.19	1.834
264.40	1.907
264.61	1.726
264.82	1.619
265.04	1.713
265.25	1.399
265.46	1.186
265.67	1.256
265.88	1.110
266.10	1.192
266.31	1.231
266.52	1.260
266.73	1.262
266.95	1.448
267.16	1.514
267.37	1.498
267.58	1.596
267.80	1.780
268.01	1.777
268.22	2.003
268.43	1.953
268.64	1.938
268.86	2.037
269.07	1.930
269.28	1.705
269.49	1.696
269.71	1.764
269.92	1.960
270.13	1.890
270.34	1.767
270.55	1.808
270.77	1.992
270.98	1.927
271.19	1.962
271.40	2.144
271.61	2.326
271.83	2.409
272.04	2.409
272.25	2.407
272.46	2.345
272.68	2.474
272.89	2.351
273.10	2.194
273.31	2.243
273.52	2.215
273.74	2.109
273.95	2.058
274.16	1.956
274.37	1.897
274.58	1.862
274.80	1.940
275.01	1.785
275.22	1.870
275.43	2.103
275.64	2.065
275.86	1.884
276.07	1.820
276.28	1.900
276.49	1.882
276.70	1.961
276.91	1.890
277.13	1.755
277.34	1.713
277.55	1.876
277.76	1.842
277.97	1.882
278.19	2.046
278.40	2.130
278.61	2.064
278.82	1.975
279.03	1.757
279.24	1.956
279.46	1.964
279.67	2.146
279.88	1.838
280.09	1.823
280.30	1.751
280.52	1.654
280.73	1.596
280.94	1.666
281.15	1.620
281.36	1.676
281.57	1.378
281.79	1.358
282.00	1.310
282.21	1.457
282.42	1.401
282.63	1.346
282.84	1.467
283.06	1.645
283.27	1.521
283.48	1.638
283.69	1.667
283.90	1.729
284.11	1.888
284.32	1.849
284.54	1.756
284.75	1.778
284.96	1.853
285.17	1.768
285.38	1.634
285.59	1.725
285.81	1.741
286.02	1.870
286.23	1.893
286.44	1.827
286.65	1.733
286.86	1.765
287.07	1.828
287.29	1.863
287.50	1.830
287.71	1.940
287.92	1.856
288.13	1.913
288.34	1.755
288.55	1.801
288.77	1.810
288.98	1.971
289.19	2.042
289.40	1.983
289.61	2.005
289.82	2.129
290.03	2.050
290.24	2.163
290.46	2.166
290.67	2.183
290.88	2.156
291.09	2.265
291.30	2.311
291.51	2.179
291.72	2.150
291.93	2.102
292.15	2.108
292.36	2.090
292.57	2.053
292.78	2.006
292.99	1.844
293.20	1.864
293.41	1.869
293.62	1.958
293.84	2.202
294.05	2.336
294.26	2.462
294.47	2.431
294.68	2.423
294.89	2.540
295.10	2.554
295.31	2.748
295.52	2.796
295.73	2.700
295.95	2.602
296.16	2.509
296.37	2.491
296.58	2.474
296.79	2.470
297.00	2.637
297.21	2.602
297.42	2.654
297.63	2.685
297.84	2.733
298.06	2.793
298.27	2.871
298.48	2.965
298.69	3.003
298.90	3.002
299.11	3.118
299.32	2.970
299.53	3.008
299.74	3.044
299.95	3.069
300.16	3.045
300.38	3.057
300.59	3.027
300.80	3.013
301.01	2.948
301.22	2.995
301.43	2.957
301.64	2.967
301.85	2.959
302.06	2.953
302.27	2.956
302.48	2.940
302.69	2.943
302.91	3.004
303.12	2.813
303.33	2.853
303.54	2.878
303.75	3.012
303.96	3.169
304.17	3.187
304.38	3.147
304.59	3.306
304.80	3.382
305.01	3.389
305.22	3.468
305.43	3.738
305.64	3.805
305.85	3.860
306.06	3.754
306.28	3.791
306.49	3.745
306.70	3.845
306.91	3.737
307.12	3.737
307.33	3.829
307.54	3.721
307.75	3.623
307.96	3.578
308.17	3.577
308.38	3.664
308.59	3.645
308.80	3.707
309.01	3.688
309.22	3.738
309.43	3.662
309.64	3.608
309.85	3.664
310.06	3.625
310.27	3.719
310.48	3.703
310.70	3.653
310.91	3.646
311.12	3.691
311.33	3.704
311.54	3.660
311.75	3.808
311.96	3.775
312.17	3.757
312.38	3.849
312.59	3.825
312.80	3.815
313.01	3.980
313.22	4.044
313.43	4.041
313.64	4.106
313.85	4.167
314.06	4.116
314.27	4.299
314.48	4.293
314.69	4.436
314.90	4.393
315.11	4.432
315.32	4.350
315.53	4.424
315.74	4.457
315.95	4.502
316.16	4.540
316.37	4.638
316.58	4.560
316.79	4.633
317.00	4.550
317.21	4.708
317.42	4.824
317.63	4.838
317.84	4.809
318.05	4.856
318.26	4.767
318.47	4.781
318.68	4.751
318.89	4.819
319.10	4.824
319.31	4.868
319.52	4.826
319.73	4.803
319.94	4.756
320.15	4.756
320.36	4.792
320.57	4.945
320.78	4.976
320.99	5.014
321.20	5.010
321.41	5.034
321.62	5.069
321.83	5.066
322.04	5.052
322.25	5.151
322.46	5.211
322.67	5.396
322.88	5.341
323.09	5.377
323.30	5.408
323.51	5.517
323.72	5.569
323.93	5.556
324.14	5.621
324.35	5.647
324.56	5.610
324.77	5.518
324.98	5.392
325.19	5.471
325.40	5.383
325.61	5.346
325.82	5.359
326.03	5.327
326.24	5.386
326.45	5.419
326.65	5.435
326.86	5.463
327.07	5.488
327.28	5.520
327.49	5.446
327.70	5.544
327.91	5.539
328.12	5.479
328.33	5.522
328.54	5.458
328.75	5.427
328.96	5.539
329.17	5.568
329.38	5.659
329.59	5.643
329.80	5.755
330.01	5.828
330.22	5.816
330.43	5.881
330.64	5.930
330.85	5.996
331.05	6.019
331.26	6.015
331.47	6.048
331.68	6.047
331.89	6.019
332.10	6.022
332.31	6.054
332.52	6.091
332.73	6.072
332.94	6.092
333.15	6.094
333.36	6.087
333.57	6.099
333.78	6.089
333.99	6.167
334.19	6.201
334.40	6.186
334.61	6.086
334.82	6.139
335.03	6.191
335.24	6.225
335.45	6.230
335.66	6.287
335.87	6.259
336.08	6.321
336.29	6.300
336.50	6.288
336.71	6.315
336.91	6.362
337.12	6.387
337.33	6.374
337.54	6.318
337.75	6.333
337.96	6.385
338.17	6.360
338.38	6.317
338.59	6.338
338.80	6.424
339.01	6.423
339.21	6.406
339.42	6.406
339.63	6.345
339.84	6.323
340.05	6.347
340.26	6.344
340.47	6.369
340.68	6.427
340.89	6.413
341.10	6.402
341.30	6.407
341.51	6.465
341.72	6.424
341.93	6.540
342.14	6.613
342.35	6.591
342.56	6.539
342.77	6.510
342.98	6.440
343.18	6.486
343.39	6.466
343.60	6.443
343.81	6.326
344.02	6.366
344.23	6.311
344.44	6.268
344.65	6.254
344.85	6.371
345.06	6.447
345.27	6.497
345.48	6.455
345.69	6.412
345.90	6.438
346.11	6.501
346.32	6.444
346.52	6.477
346.73	6.443
346.94	6.521
347.15	6.385
347.36	6.379
347.57	6.379
347.78	6.379
347.98	6.444
348.19	6.487
348.40	6.545
348.61	6.592
348.82	6.614
349.03	6.684
349.24	6.659
349.44	6.733
349.65	6.767
349.86	6.763
350.07	6.852
350.28	6.851
350.49	6.826
350.70	6.777
350.90	6.755
351.11	6.737
351.32	6.780
351.53	6.870
351.74	6.860
351.95	6.876
352.15	6.869
352.36	6.807
352.57	6.888
352.78	6.890
352.99	6.940
353.20	7.025
353.40	7.036
353.61	7.032
353.82	6.951
354.03	7.015
354.24	6.993
354.45	7.025
354.65	7.094
354.86	7.025
355.07	7.042
355.28	7.043
355.49	7.101
355.70	7.180
355.90	7.139
356.11	7.162
356.32	7.095
356.53	7.118
356.74	7.138
356.94	7.176
357.15	7.186
357.36	7.209
357.57	7.257
357.78	7.232
357.99	7.144
358.19	7.256
358.40	7.292
358.61	7.396
358.82	7.433
359.03	7.437
359.23	7.398
359.44	7.460
359.65	7.495
359.86	7.536
360.07	7.515
360.27	7.567
360.48	7.516
360.69	7.506
360.90	7.457
361.11	7.450
361.31	7.454
361.52	7.468
361.73	7.436
361.94	7.388
362.15	7.313
362.35	7.335
362.56	7.343
362.77	7.364
362.98	7.402
363.18	7.419
363.39	7.415
363.60	7.452
363.81	7.453
364.02	7.478
364.22	7.548
364.43	7.639
364.64	7.638
364.85	7.657
365.05	7.699
365.26	7.725
365.47	7.748
365.68	7.806
365.89	7.824
366.09	7.817
366.30	7.861
366.51	7.861
366.72	7.838
366.92	7.882
367.13	7.902
367.34	7.898
367.55	7.884
367.75	7.897
367.96	7.881
368.17	7.932
368.38	7.969
368.58	7.948
368.79	7.957
369.00	8.019
369.21	8.045
369.41	8.084
369.62	8.090
369.83	8.088
370.04	8.139
370.24	8.148
370.45	8.082
370.66	8.129
370.87	8.156
371.07	8.197
371.28	8.173
371.49	8.184
371.70	8.147
371.90	8.193
372.11	8.245
372.32	8.276
372.53	8.296
372.73	8.378
372.94	8.373
373.15	8.396
373.36	8.399
373.56	8.439
373.77	8.485
373.98	8.551
374.19	8.491
374.39	8.477
374.60	8.445
374.81	8.456
375.01	8.402
375.22	8.410
375.43	8.443
375.64	8.491
375.84	8.474
376.05	8.484
376.26	8.512
376.46	8.589
376.67	8.618
376.88	8.633
377.09	8.650
377.29	8.720
377.50	8.757
377.71	8.786
377.91	8.776
378.12	8.825
378.33	8.755
378.54	8.760
378.74	8.762
378.95	8.794
379.16	8.749
379.36	8.750
379.57	8.784
379.78	8.797
379.99	8.779
380.19	8.795
380.40	8.819
380.61	8.881
380.81	8.861
381.02	8.913
381.23	8.955
381.43	9.042
381.64	9.112
381.85	9.127
382.05	9.130
382.26	9.153
382.47	9.145
382.67	9.163
382.88	9.170
383.09	9.202
383.30	9.181
383.50	9.161
383.71	9.189
383.92	9.200
384.12	9.235
384.33	9.273
384.54	9.288
384.74	9.356
384.95	9.331
385.16	9.367
385.36	9.406
385.57	9.410
385.78	9.451
385.98	9.456
386.19	9.483
386.40	9.433
386.60	9.450
386.81	9.492
387.02	9.483
387.22	9.533
387.43	9.557
387.64	9.579
387.84	9.637
388.05	9.627
388.26	9.635
388.46	9.636
388.67	9.682
388.88	9.705
389.08	9.690
389.29	9.720
389.49	9.765
389.70	9.767
389.91	9.740
390.11	9.730
390.32	9.752
390.53	9.770
390.73	9.772
390.94	9.791
391.15	9.758
391.35	9.783
391.56	9.821
391.77	9.782
391.97	9.801
392.18	9.837
392.38	9.848
392.59	9.861
392.80	9.888
393.00	9.905
393.21	9.919
393.42	9.967
393.62	9.994
393.83	9.979
394.04	10.007
394.24	10.021
394.45	10.052
394.65	10.081
394.86	10.095
395.07	10.140
395.27	10.164
395.48	10.177
395.68	10.212
395.89	10.247
396.10	10.282
396.30	10.319
396.51	10.350
396.72	10.346
396.92	10.367
397.13	10.391
397.33	10.386
397.54	10.419
397.75	10.465
397.95	10.483
398.16	10.455
398.36	10.473
398.57	10.504
398.78	10.511
398.98	10.539
399.19	10.578
399.39	10.606
399.60	10.629
399.81	10.616
400.01	10.603
400.22	10.610
400.42	10.613
400.63	10.633
400.84	10.645
401.04	10.705
401.25	10.716
401.45	10.708
401.66	10.718
401.86	10.709
402.07	10.720
402.28	10.746
402.48	10.748
402.69	10.802
402.89	10.804
403.10	10.788
403.31	10.773
403.51	10.796
403.72	10.828
403.92	10.848
404.13	10.898
404.33	10.958
404.54	10.967
404.75	10.989
404.95	11.002
405.16	11.012
405.36	11.033
405.57	11.065
405.77	11.081
405.98	11.067
406.18	11.079
406.39	11.093
406.60	11.073
406.80	11.089
407.01	11.131
407.21	11.169
407.42	11.175
407.62	11.189
407.83	11.199
408.03	11.253
408.24	11.301
408.45	11.348
408.65	11.334
408.86	11.374
409.06	11.416
409.27	11.445
409.47	11.448
409.68	11.485
409.88	11.508
410.09	11.524
410.29	11.531
410.50	11.545
410.71	11.530
410.91	11.561
411.12	11.582
411.32	11.597
411.53	11.609
411.73	11.637
411.94	11.668
412.14	11.683
412.35	11.705
412.55	11.719
412.76	11.726
412.96	11.781
413.17	11.793
413.37	11.791
413.58	11.815
413.78	11.809
413.99	11.821
414.19	11.834
414.40	11.863
414.61	11.858
414.81	11.851
415.02	11.861
415.22	11.829
415.43	11.837
415.63	11.836
415.84	11.831
416.04	11.827
416.25	11.846
416.45	11.832
416.66	11.829
416.86	11.842
417.07	11.848
417.27	11.865
417.48	11.865
417.68	11.872
417.89	11.875
418.09	11.887
418.30	11.906
418.50	11.905
418.71	11.917
418.91	11.948
419.12	11.951
419.32	11.966
419.53	11.967
419.73	11.995
419.94	11.979
420.14	11.974
420.34	11.966
420.55	11.944
420.75	11.951
420.96	11.963
421.16	11.964
421.37	11.987
421.57	11.996
421.78	12.015
421.98	12.037
422.19	12.080
422.39	12.121
422.60	12.151
422.80	12.195
423.01	12.204
423.21	12.203
423.42	12.200
423.62	12.180
423.83	12.191
424.03	12.214
424.23	12.235
424.44	12.261
424.64	12.280
424.85	12.316
425.05	12.363
425.26	12.393
425.46	12.443
425.67	12.519
425.87	12.596
426.08	12.668
426.28	12.721
426.48	12.756
426.69	12.795
426.89	12.860
427.10	12.878
427.30	12.894
427.51	12.956
427.71	12.996
427.92	12.976
428.12	12.980
428.32	12.948
428.53	12.941
428.73	12.945
428.94	12.934
429.14	12.928
429.35	12.951
429.55	12.947
429.76	12.945
429.96	12.958
430.16	12.967
430.37	13.010
430.57	13.043
430.78	13.044
430.98	13.042
431.19	13.066
431.39	13.060
431.59	13.040
431.80	13.039
432.00	13.021
432.21	12.990
432.41	12.947
432.61	12.911
432.82	12.925
433.02	12.937
433.23	12.959
433.43	12.973
433.64	13.005
433.84	13.032
434.04	13.091
434.25	13.142
434.45	13.215
434.66	13.311
434.86	13.401
435.06	13.437
435.27	13.480
435.47	13.520
435.68	13.519
435.88	13.522
436.08	13.525
436.29	13.497
436.49	13.481
436.70	13.462
436.90	13.443
437.10	13.420
437.31	13.407
437.51	13.414
437.71	13.403
437.92	13.429
438.12	13.424
438.33	13.415
438.53	13.408
438.73	13.406
438.94	13.396
439.14	13.417
439.35	13.424
439.55	13.440
439.75	13.439
439.96	13.446
440.16	13.469
440.36	13.485
440.57	13.521
440.77	13.579
440.97	13.605
441.18	13.647
441.38	13.682
441.59	13.702
441.79	13.751
441.99	13.799
442.20	13.857
442.40	13.885
442.60	13.938
442.81	13.959
443.01	13.950
443.21	13.956
443.42	13.949
443.62	13.933
443.83	13.934
444.03	13.908
444.23	13.876
444.44	13.827
444.64	13.796
444.84	13.771
445.05	13.746
445.25	13.726
445.45	13.715
445.66	13.713
445.86	13.709
446.06	13.719
446.27	13.746
446.47	13.761
446.67	13.804
446.88	13.859
447.08	13.897
447.28	13.966
447.49	14.026
447.69	14.079
447.89	14.140
448.10	14.208
448.30	14.262
448.50	14.270
448.71	14.340
448.91	14.346
449.11	14.347
449.32	14.366
449.52	14.376
449.72	14.385
449.93	14.416
450.13	14.434
450.33	14.450
450.53	14.468
450.74	14.489
450.94	14.464
451.14	14.473
451.35	14.477
451.55	14.468
451.75	14.471
451.96	14.489
452.16	14.502
452.36	14.515
452.57	14.518
452.77	14.535
452.97	14.553
453.17	14.575
453.38	14.610
453.58	14.647
453.78	14.672
453.99	14.673
454.19	14.687
454.39	14.700
454.59	14.708
454.80	14.727
455.00	14.721
455.20	14.769
455.41	14.787
455.61	14.827
455.81	14.844
456.01	14.895
456.22	14.922
456.42	14.918
456.62	14.917
456.83	14.936
457.03	14.956
457.23	14.972
457.43	14.946
457.64	14.927
457.84	14.894
458.04	14.867
458.25	14.818
458.45	14.791
458.65	14.762
458.85	14.723
459.06	14.670
459.26	14.643
459.46	14.629
459.66	14.641
459.87	14.686
460.07	14.718
460.27	14.773
460.47	14.833
460.68	14.902
460.88	14.983
461.08	15.067
461.28	15.177
461.49	15.240
461.69	15.327
461.89	15.378
462.09	15.415
462.30	15.435
462.50	15.441
462.70	15.449
462.90	15.456
463.11	15.450
463.31	15.471
463.51	15.457
463.71	15.471
463.92	15.465
464.12	15.469
464.32	15.473
464.52	15.501
464.72	15.513
464.93	15.517
465.13	15.503
465.33	15.502
465.53	15.499
465.74	15.507
465.94	15.500
466.14	15.490
466.34	15.486
466.54	15.482
466.75	15.470
466.95	15.477
467.15	15.485
467.35	15.505
467.56	15.541
467.76	15.577
467.96	15.592
468.16	15.635
468.36	15.664
468.57	15.691
468.77	15.716
468.97	15.740
469.17	15.743
469.37	15.753
469.58	15.769
469.78	15.763
469.98	15.761
470.18	15.795
470.38	15.803
470.59	15.826
470.79	15.855
470.99	15.890
471.19	15.919
471.39	15.947
471.60	15.959
471.80	15.963
472.00	15.949
472.20	15.941
472.40	15.928
472.61	15.923
472.81	15.931
473.01	15.935
473.21	15.946
473.41	15.969
473.61	15.984
473.82	15.990
474.02	16.025
474.22	16.071
474.42	16.116
474.62	16.141
474.82	16.165
475.03	16.189
475.23	16.188
475.43	16.190
475.63	16.171
475.83	16.159
476.03	16.173
476.24	16.169
476.44	16.152
476.64	16.146
476.84	16.143
477.04	16.166
477.24	16.163
477.45	16.192
477.65	16.202
477.85	16.219
478.05	16.226
478.25	16.253
478.45	16.262
478.65	16.296
478.86	16.316
479.06	16.341
479.26	16.353
479.46	16.374
479.66	16.367
479.86	16.378
480.06	16.377
480.27	16.386
480.47	16.373
480.67	16.369
480.87	16.365
481.07	16.358
481.27	16.352
481.47	16.349
481.68	16.337
481.88	16.336
482.08	16.291
482.28	16.258
482.48	16.200
482.68	16.108
482.88	16.035
483.08	16.149
483.29	16.351
483.49	16.501
483.69	16.456
483.89	16.402
484.09	16.430
484.29	16.489
484.49	16.560
484.69	16.650
484.89	16.773
485.10	16.912
485.30	16.937
485.50	16.841
485.70	16.732
485.90	16.824
486.10	16.921
486.30	16.885
486.50	16.796
486.70	16.675
486.90	16.555
487.11	16.469
487.31	16.399
487.51	16.353
487.71	16.338
487.91	16.356
488.11	16.383
488.31	16.453
488.51	16.528
488.71	16.612
488.91	16.708
489.11	16.805
489.32	16.897
489.52	16.997
489.72	17.079
489.92	17.138
490.12	17.149
490.32	17.104
490.52	16.998
490.72	16.881
490.92	16.757
491.12	16.667
491.32	16.617
491.52	16.599
491.72	16.603
491.92	16.620
492.13	16.659
492.33	16.705
492.53	16.781
492.73	16.892
492.93	17.016
493.13	17.150
493.33	17.278
493.53	17.403
493.73	17.477
493.93	17.526
494.13	17.554
494.33	17.550
494.53	17.537
494.73	17.515
494.93	17.465
495.13	17.434
495.33	17.396
495.53	17.373
495.73	17.326
495.94	17.305
496.14	17.268
496.34	17.266
496.54	17.271
496.74	17.268
496.94	17.285
497.14	17.294
497.34	17.291
497.54	17.327
497.74	17.359
497.94	17.386
498.14	17.416
498.34	17.465
498.54	17.499
498.74	17.517
498.94	17.551
499.14	17.568
499.34	17.589
499.54	17.610
499.74	17.626
499.94	17.642
500.14	17.675
500.34	17.697
500.54	17.727
500.74	17.735
500.94	17.761
501.14	17.790
501.34	17.807
501.54	17.826
501.74	17.839
501.94	17.834
502.14	17.852
502.34	17.870
502.54	17.874
502.74	17.868
502.94	17.850
503.14	17.840
503.34	17.821
503.54	17.795
503.74	17.776
503.94	17.771
504.14	17.784
504.34	17.785
504.54	17.789
504.74	17.819
504.94	17.834
505.14	17.880
505.34	17.904
505.54	17.925
505.74	17.950
505.94	17.986
506.14	18.022
506.34	18.044
506.54	18.031
506.74	18.023
506.94	18.006
507.14	17.996
507.34	17.975
507.54	17.950
507.74	17.940
507.94	17.944
508.14	17.940
508.34	17.927
508.54	17.923
508.74	17.951
508.94	17.986
509.13	18.011
509.33	18.024
509.53	18.054
509.73	18.095
509.93	18.127
510.13	18.148
510.33	18.176
510.53	18.203
510.73	18.229
510.93	18.228
511.13	18.213
511.33	18.194
511.53	18.200
511.73	18.189
511.93	18.199
512.13	18.197
512.33	18.225
512.53	18.222
512.73	18.243
512.92	18.248
513.12	18.261
513.32	18.289
513.52	18.335
513.72	18.361
513.92	18.397
514.12	18.414
514.32	18.459
514.52	18.450
514.72	18.468
514.92	18.477
515.12	18.500
515.32	18.508
515.52	18.512
515.71	18.494
515.91	18.497
516.11	18.481
516.31	18.481
516.51	18.445
516.71	18.449
516.91	18.435
517.11	18.416
517.31	18.384
517.51	18.352
517.71	18.306
517.90	18.293
518.10	18.282
518.30	18.280
518.50	18.279
518.70	18.295
518.90	18.321
519.10	18.340
519.30	18.361
519.50	18.410
519.69	18.474
519.89	18.554
520.09	18.623
520.29	18.675
520.49	18.739
520.69	18.794
520.89	18.831
521.09	18.842
521.29	18.881
521.48	18.897
521.68	18.907
521.88	18.899
522.08	18.899
522.28	18.900
522.48	18.903
522.68	18.898
522.88	18.904
523.07	18.911
523.27	18.923
523.47	18.923
523.67	18.942
523.87	18.940
524.07	18.946
524.27	18.916
524.47	18.866
524.66	18.834
524.86	18.790
525.06	18.748
525.26	18.728
525.46	18.715
525.66	18.706
525.85	18.720
526.05	18.726
526.25	18.750
526.45	18.799
526.65	18.845
526.85	18.880
527.05	18.902
527.24	18.874
527.44	18.791
527.64	18.684
527.84	18.603
528.04	18.542
528.24	18.520
528.43	18.506
528.63	18.504
528.83	18.532
529.03	18.577
529.23	18.635
529.43	18.718
529.62	18.822
529.82	18.956
530.02	19.101
530.22	19.236
530.42	19.360
530.62	19.473
530.81	19.559
531.01	19.597
531.21	19.607
531.41	19.586
531.61	19.530
531.80	19.471
532.00	19.384
532.20	19.262
532.40	19.142
532.60	19.028
532.79	18.947
532.99	18.887
533.19	18.865
533.39	18.869
533.59	18.892
533.78	18.940
533.98	18.993
534.18	19.044
534.38	19.139
534.58	19.250
534.77	19.379
534.97	19.494
535.17	19.601
535.37	19.663
535.57	19.651
535.76	19.587
535.96	19.506
536.16	19.413
536.36	19.371
536.56	19.322
536.75	19.314
536.95	19.310
537.15	19.324
537.35	19.338
537.54	19.372
537.74	19.443
537.94	19.547
538.14	19.645
538.34	19.733
538.53	19.819
538.73	19.873
538.93	19.880
539.13	19.877
539.32	19.861
539.52	19.828
539.72	19.773
539.92	19.674
540.11	19.539
540.31	19.389
540.51	19.259
540.71	19.121
540.90	19.055
541.10	19.018
541.30	19.025
541.50	19.050
541.69	19.091
541.89	19.136
542.09	19.195
542.29	19.267
542.48	19.367
542.68	19.484
542.88	19.618
543.08	19.733
543.27	19.843
543.47	19.907
543.67	19.960
543.87	19.979
544.06	20.005
544.26	20.012
544.46	20.023
544.65	20.015
544.85	20.026
545.05	20.030
545.25	20.016
545.44	19.991
545.64	19.975
545.84	19.915
546.04	19.895
546.23	19.848
546.43	19.826
546.63	19.806
546.82	19.827
547.02	19.833
547.22	19.861
547.42	19.893
547.61	19.948
547.81	19.978
548.01	20.058
548.20	20.104
548.40	20.168
548.60	20.232
548.79	20.283
548.99	20.305
549.19	20.348
549.39	20.354
549.58	20.365
549.78	20.344
549.98	20.349
550.17	20.337
550.37	20.341
550.57	20.337
550.76	20.339
550.96	20.340
551.16	20.325
551.35	20.292
551.55	20.276
551.75	20.235
551.94	20.199
552.14	20.174
552.34	20.162
552.53	20.135
552.73	20.140
552.93	20.161
553.13	20.207
553.32	20.248
553.52	20.278
553.72	20.319
553.91	20.376
554.11	20.437
554.31	20.502
554.50	20.540
554.70	20.585
554.89	20.603
555.09	20.611
555.29	20.584
555.48	20.576
555.68	20.579
555.88	20.580
556.07	20.571
556.27	20.562
556.47	20.551
556.66	20.556
556.86	20.572
557.06	20.587
557.25	20.573
557.45	20.582
557.65	20.602
557.84	20.606
558.04	20.617
558.23	20.630
558.43	20.653
558.63	20.673
558.82	20.689
559.02	20.701
559.22	20.685
559.41	20.694
559.61	20.707
559.81	20.706
560.00	20.713
560.20	20.715
560.39	20.711
560.59	20.692
560.79	20.677
560.98	20.668
561.18	20.664
561.37	20.691
561.57	20.686
561.77	20.675
561.96	20.694
562.16	20.704
562.36	20.707
562.55	20.730
562.75	20.758
562.94	20.769
563.14	20.780
563.34	20.790
563.53	20.810
563.73	20.849
563.92	20.891
564.12	20.885
564.32	20.873
564.51	20.883
564.71	20.853
564.90	20.826
565.10	20.817
565.29	20.805
565.49	20.761
565.69	20.707
565.88	20.655
566.08	20.622
566.27	20.614
566.47	20.638
566.67	20.635
566.86	20.665
567.06	20.710
567.25	20.753
567.45	20.794
567.64	20.847
567.84	20.905
568.04	20.972
568.23	21.001
568.43	21.034
568.62	21.039
568.82	21.031
569.01	21.033
569.21	21.040
569.41	21.047
569.60	21.051
569.80	21.053
569.99	21.063
570.19	21.064
570.38	21.055
570.58	21.027
570.77	20.991
570.97	21.005
571.17	20.991
571.36	20.935
571.56	20.912
571.75	20.896
571.95	20.894
572.14	20.869
572.34	20.875
572.53	20.914
572.73	20.950
572.92	21.003
573.12	21.044
573.31	21.074
573.51	21.125
573.70	21.161
573.90	21.179
574.10	21.159
574.29	21.195
574.49	21.175
574.68	21.150
574.88	21.148
575.07	21.159
575.27	21.152
575.46	21.168
575.66	21.185
575.85	21.189
576.05	21.209
576.24	21.255
576.44	21.263
576.63	21.294
576.83	21.325
577.02	21.345
577.22	21.348
577.41	21.371
577.61	21.370
577.80	21.381
578.00	21.378
578.19	21.393
578.39	21.419
578.58	21.435
578.78	21.481
578.97	21.486
579.17	21.481
579.36	21.488
579.56	21.480
579.75	21.495
579.95	21.508
580.14	21.515
580.34	21.516
580.53	21.528
580.73	21.517
580.92	21.506
581.12	21.515
581.31	21.532
581.51	21.542
581.70	21.554
581.89	21.555
582.09	21.567
582.28	21.570
582.48	21.563
582.67	21.550
582.87	21.583
583.06	21.600
583.26	21.626
583.45	21.643
583.65	21.652
583.84	21.671
584.04	21.680
584.23	21.686
584.43	21.720
584.62	21.740
584.81	21.751
585.01	21.742
585.20	21.734
585.40	21.713
585.59	21.694
585.79	21.700
585.98	21.699
586.18	21.713
586.37	21.733
586.56	21.736
586.76	21.727
586.95	21.736
587.15	21.736
587.34	21.714
587.54	21.723
587.73	21.752
587.92	21.764
588.12	21.744
588.31	21.761
588.51	21.742
588.70	21.713
588.90	21.732
589.09	21.723
589.28	21.729
589.48	21.724
589.67	21.734
589.87	21.722
590.06	21.697
590.25	21.707
590.45	21.679
590.64	21.691
590.84	21.730
591.03	21.728
591.23	21.749
591.42	21.775
591.61	21.823
591.81	21.834
592.00	21.846
592.20	21.896
592.39	21.915
592.58	21.929
592.78	21.928
592.97	21.904
593.17	21.891
593.36	21.877
593.55	21.872
593.75	21.860
593.94	21.824
594.13	21.824
594.33	21.822
594.52	21.858
594.72	21.875
594.91	21.891
595.10	21.913
595.30	21.928
595.49	21.955
595.68	21.949
595.88	21.915
596.07	21.906
596.27	21.861
596.46	21.784
596.65	21.702
596.85	21.678
597.04	21.654
597.23	21.650
597.43	21.676
597.62	21.678
597.81	21.720
598.01	21.763
598.20	21.821
598.40	21.892
598.59	21.978
598.78	22.055
598.98	22.137
599.17	22.200
599.36	22.240
599.56	22.253
599.75	22.274
599.94	22.241
600.14	22.228
600.33	22.232
600.52	22.231
600.72	22.216
600.91	22.211
601.10	22.160
601.30	22.148
601.49	22.139
601.68	22.115
601.88	22.091
602.07	22.071
602.26	22.057
602.46	22.022
602.65	21.985
602.84	21.979
603.04	21.961
603.23	21.948
603.42	21.896
603.62	21.853
603.81	21.816
604.00	21.780
604.20	21.768
604.39	21.756
604.58	21.771
604.77	21.782
604.97	21.815
605.16	21.857
605.35	21.897
605.55	21.953
605.74	22.003
605.93	22.085
606.13	22.177
606.32	22.256
606.51	22.348
606.70	22.383
606.90	22.423
607.09	22.438
607.28	22.443
607.48	22.426
607.67	22.441
607.86	22.439
608.05	22.392
608.25	22.303
608.44	22.233
608.63	22.153
608.83	22.104
609.02	22.056
609.21	21.990
609.40	21.972
609.60	21.994
609.79	21.981
609.98	21.998
610.17	22.025
610.37	22.096
610.56	22.143
610.75	22.213
610.95	22.285
611.14	22.366
611.33	22.440
611.52	22.506
611.72	22.525
611.91	22.555
612.10	22.566
612.29	22.602
612.49	22.580
612.68	22.607
612.87	22.614
613.06	22.585
613.26	22.554
613.45	22.573
613.64	22.548
613.83	22.556
614.03	22.530
614.22	22.557
614.41	22.536
614.60	22.569
614.79	22.564
614.99	22.564
615.18	22.599
615.37	22.654
615.56	22.648
615.76	22.641
615.95	22.645
616.14	22.682
616.33	22.675
616.53	22.671
616.72	22.687
616.91	22.683
617.10	22.663
617.29	22.643
617.49	22.619
617.68	22.621
617.87	22.629
618.06	22.616
618.25	22.610
618.45	22.605
618.64	22.604
618.83	22.580
619.02	22.577
619.21	22.587
619.41	22.601
619.60	22.620
619.79	22.645
619.98	22.626
620.17	22.650
620.37	22.645
620.56	22.650
620.75	22.659
620.94	22.670
621.13	22.702
621.33	22.714
621.52	22.730
621.71	22.720
621.90	22.726
622.09	22.765
622.28	22.748
622.48	22.762
622.67	22.771
622.86	22.780
623.05	22.798
623.24	22.794
623.44	22.804
623.63	22.795
623.82	22.827
624.01	22.797
624.20	22.785
624.39	22.805
624.59	22.818
624.78	22.835
624.97	22.836
625.16	22.807
625.35	22.777
625.54	22.756
625.73	22.743
625.93	22.693
626.12	22.669
626.31	22.652
626.50	22.628
626.69	22.592
626.88	22.553
627.07	22.554
627.27	22.584
627.46	22.618
627.65	22.647
627.84	22.683
628.03	22.737
628.22	22.789
628.41	22.820
628.61	22.842
628.80	22.913
628.99	22.973
629.18	23.003
629.37	23.010
629.56	23.000
629.75	23.005
629.94	23.012
630.14	23.018
630.33	23.016
630.52	23.021
630.71	23.046
630.90	23.024
631.09	22.993
631.28	22.991
631.47	22.987
631.66	23.010
631.86	23.035
632.05	23.026
632.24	23.003
632.43	23.015
632.62	23.006
632.81	22.975
633.00	22.970
633.19	22.959
633.38	22.940
633.57	22.929
633.77	22.932
633.96	22.908
634.15	22.906
634.34	22.908
634.53	22.894
634.72	22.915
634.91	22.983
635.10	22.989
635.29	23.009
635.48	23.042
635.67	23.066
635.86	23.081
636.05	23.093
636.25	23.105
636.44	23.110
636.63	23.127
636.82	23.114
637.01	23.062
637.20	23.096
637.39	23.129
637.58	23.135
637.77	23.152
637.96	23.151
638.15	23.176
638.34	23.206
638.53	23.233
638.72	23.243
638.91	23.278
639.10	23.339
639.30	23.327
639.49	23.310
639.68	23.341
639.87	23.352
640.06	23.358
640.25	23.361
640.44	23.351
640.63	23.335
640.82	23.314
641.01	23.304
641.20	23.244
641.39	23.271
641.58	23.271
641.77	23.262
641.96	23.266
642.15	23.285
642.34	23.274
642.53	23.279
642.72	23.312
642.91	23.316
643.10	23.335
643.29	23.401
643.48	23.394
643.67	23.409
643.86	23.393
644.05	23.379
644.24	23.382
644.43	23.388
644.62	23.365
644.81	23.347
645.00	23.365
645.19	23.367
645.38	23.332
645.57	23.297
645.76	23.310
645.95	23.303
646.14	23.299
646.33	23.291
646.52	23.273
646.71	23.313
646.90	23.296
647.09	23.313
647.28	23.320
647.47	23.328
647.66	23.370
647.85	23.336
648.04	23.352
648.23	23.401
648.42	23.413
648.61	23.450
648.80	23.460
648.99	23.477
649.18	23.470
649.37	23.456
649.56	23.482
649.75	23.471
649.94	23.477
650.13	23.478
650.32	23.470
650.51	23.442
650.70	23.423
650.89	23.423
651.08	23.452
651.27	23.462
651.46	23.448
651.65	23.455
651.83	23.460
652.02	23.490
652.21	23.497
652.40	23.504
652.59	23.533
652.78	23.586
652.97	23.592
653.16	23.585
653.35	23.575
653.54	23.629
653.73	23.621
653.92	23.639
654.11	23.663
654.30	23.682
654.49	23.659
654.68	23.684
654.86	23.658
655.05	23.640
655.24	23.638
655.43	23.646
655.62	23.610
655.81	23.627
656.00	23.656
656.19	23.659
656.38	23.664
656.57	23.652
656.76	23.618
656.95	23.617
657.13	23.602
657.32	23.604
657.51	23.588
657.70	23.592
657.89	23.567
658.08	23.492
658.27	23.409
658.46	23.346
658.65	23.309
658.84	23.280
659.02	23.237
659.21	23.252
659.40	23.258
659.59	23.288
659.78	23.317
659.97	23.343
660.16	23.368
660.35	23.465
660.54	23.536
660.72	23.622
660.91	23.652
661.10	23.734
661.29	23.763
661.48	23.794
661.67	23.826
661.86	23.841
662.05	23.829
662.23	23.847
662.42	23.814
662.61	23.812
662.80	23.791
662.99	23.810
663.18	23.827
663.37	23.850
663.56	23.886
663.74	23.884
663.93	23.861
664.12	23.882
664.31	23.898
664.50	23.909
664.69	23.900
664.87	23.887
665.06	23.916
665.25	23.900
665.44	23.870
665.63	23.823
665.82	23.830
666.01	23.846
666.19	23.842
666.38	23.854
666.57	23.855
666.76	23.849
666.95	23.864
667.14	23.863
667.32	23.852
667.51	23.844
667.70	23.859
667.89	23.826
668.08	23.818
668.26	23.812
668.45	23.792
668.64	23.804
668.83	23.797
669.02	23.809
669.21	23.833
669.39	23.847
669.58	23.868
669.77	23.865
669.96	23.873
670.15	23.888
670.33	23.912
670.52	23.937
670.71	23.894
670.90	23.920
671.09	23.932
671.27	23.942
671.46	23.924
671.65	23.940
671.84	23.927
672.03	23.940
672.21	23.951
672.40	23.980
672.59	23.970
672.78	24.026
672.96	24.021
673.15	24.056
673.34	24.047
673.53	24.057
673.72	24.031
673.90	24.045
674.09	24.048
674.28	24.031
674.47	23.987
674.65	24.009
674.84	24.021
675.03	24.031
675.22	23.996
675.41	23.964
675.59	23.958
675.78	23.992
675.97	23.976
676.16	23.977
676.34	23.964
676.53	24.011
676.72	23.999
676.91	23.999
677.09	24.021
677.28	24.022
677.47	24.045
677.66	24.046
677.84	24.004
678.03	24.024
678.22	24.002
678.41	24.016
678.59	23.980
678.78	23.968
678.97	23.946
679.15	23.868
679.34	23.812
679.53	23.803
679.72	23.823
679.90	23.815
680.09	23.788
680.28	23.828
680.47	23.832
680.65	23.843
680.84	23.843
681.03	23.861
681.21	23.926
681.40	24.013
681.59	24.051
681.78	24.047
681.96	24.043
682.15	24.093
682.34	24.088
682.52	24.120
682.71	24.148
682.90	24.162
683.08	24.146
683.27	24.123
683.46	24.125
683.65	24.101
683.83	24.142
684.02	24.198
684.21	24.186
684.39	24.203
684.58	24.178
684.77	24.125
684.95	24.136
685.14	24.205
685.33	24.245
685.51	24.209
685.70	24.207
685.89	24.184
686.07	24.170
686.26	24.191
686.45	24.193
686.63	24.227
686.82	24.268
687.01	24.264
687.20	24.213
687.38	24.200
687.57	24.213
687.75	24.233
687.94	24.199
688.13	24.243
688.31	24.248
688.50	24.246
688.69	24.226
688.87	24.226
689.06	24.233
689.25	24.239
689.43	24.229
689.62	24.231
689.81	24.224
689.99	24.229
690.18	24.196
690.37	24.154
690.55	24.159
690.74	24.201
690.93	24.241
691.11	24.248
691.30	24.281
691.48	24.264
691.67	24.278
691.86	24.276
692.04	24.301
692.23	24.338
692.42	24.381
692.60	24.375
692.79	24.335
692.97	24.341
693.16	24.364
693.35	24.343
693.53	24.426
693.72	24.424
693.90	24.458
694.09	24.522
694.28	24.521
694.46	24.581
694.65	24.600
694.83	24.625
695.02	24.565
695.21	24.529
695.39	24.539
695.58	24.493
695.76	24.471
695.95	24.428
696.14	24.423
696.32	24.400
696.51	24.333
696.69	24.365
696.88	24.326
697.07	24.323
697.25	24.306
697.44	24.229
697.62	24.209
697.81	24.146
697.99	24.107
698.18	23.976
698.37	23.897
698.55	23.855
698.74	23.787
698.92	23.797
699.11	23.785
699.29	23.806
699.48	23.862
699.67	23.920
699.85	23.995
700.04	24.074
700.22	24.215
700.41	24.352
700.59	24.468
700.78	24.535
700.96	24.596
701.15	24.687
701.34	24.739
701.52	24.750
701.71	24.739
701.89	24.759
702.08	24.735
702.26	24.710
702.45	24.643
702.63	24.603
702.82	24.623
703.00	24.613
703.19	24.614
703.38	24.637
703.56	24.658
703.75	24.687
703.93	24.651
704.12	24.693
704.30	24.712
704.49	24.759
704.67	24.767
704.86	24.753
705.04	24.729
705.23	24.690
705.41	24.648
705.60	24.633
705.78	24.604
705.97	24.618
706.15	24.546
706.34	24.516
706.52	24.464
706.71	24.433
706.89	24.406
707.08	24.427
707.26	24.432
707.45	24.430
707.63	24.376
707.82	24.342
708.00	24.307
708.19	24.346
708.37	24.302
708.56	24.330
708.74	24.319
708.93	24.321
709.11	24.334
709.30	24.299
709.48	24.300
709.67	24.374
709.85	24.399
710.04	24.420
710.22	24.425
710.41	24.438
710.59	24.421
710.77	24.429
710.96	24.463
711.14	24.448
711.33	24.443
711.51	24.460
711.70	24.432
711.88	24.433
712.07	24.446
712.25	24.463
712.44	24.493
712.62	24.557
712.80	24.608
712.99	24.630
713.17	24.657
713.36	24.684
713.54	24.694
713.73	24.715
713.91	24.741
714.10	24.731
714.28	24.692
714.46	24.710
714.65	24.677
714.83	24.622
715.02	24.601
715.20	24.624
715.39	24.654
715.57	24.597
715.75	24.592
715.94	24.575
716.12	24.587
716.31	24.638
716.49	24.592
716.68	24.635
716.86	24.666
717.04	24.684
717.23	24.605
717.41	24.570
717.60	24.593
717.78	24.594
717.96	24.588
718.15	24.612
718.33	24.584
718.52	24.623
718.70	24.595
718.88	24.626
719.07	24.591
719.25	24.632
719.44	24.613
719.62	24.648
719.80	24.651
719.99	24.641
720.17	24.591
720.36	24.560
720.54	24.574
720.72	24.525
720.91	24.515
721.09	24.542
721.27	24.582
721.46	24.627
721.64	24.615
721.83	24.574
722.01	24.557
722.19	24.565
722.38	24.568
722.56	24.528
722.74	24.538
722.93	24.515
723.11	24.481
723.30	24.465
723.48	24.448
723.66	24.475
723.85	24.531
724.03	24.553
724.21	24.552
724.40	24.548
724.58	24.549
724.76	24.594
724.95	24.531
725.13	24.584
725.31	24.602
725.50	24.634
725.68	24.571
725.86	24.546
726.05	24.556
726.23	24.603
726.41	24.610
726.60	24.526
726.78	24.501
726.96	24.555
727.15	24.494
727.33	24.438
727.51	24.459
727.70	24.514
727.88	24.529
728.06	24.526
728.25	24.497
728.43	24.543
728.61	24.603
728.80	24.573
728.98	24.548
729.16	24.566
729.34	24.578
729.53	24.551
729.71	24.507
729.89	24.517
730.08	24.511
730.26	24.512
730.44	24.463
730.63	24.475
730.81	24.467
730.99	24.485
731.17	24.444
731.36	24.486
731.54	24.497
731.72	24.536
731.91	24.535
732.09	24.553
732.27	24.554
732.45	24.532
732.64	24.564
732.82	24.619
733.00	24.675
733.19	24.728
733.37	24.670
733.55	24.657
733.73	24.653
733.92	24.699
734.10	24.675
734.28	24.726
734.46	24.821
734.65	24.820
734.83	24.842
735.01	24.797
735.19	24.850
735.38	24.870
735.56	24.889
735.74	24.916
735.92	24.885
736.11	24.856
736.29	24.858
736.47	24.725
736.65	24.747
736.84	24.660
737.02	24.650
737.20	24.576
737.38	24.519
737.57	24.502
737.75	24.491
737.93	24.479
738.11	24.524
738.30	24.486
738.48	24.531
738.66	24.515
738.84	24.573
739.02	24.586
739.21	24.577
739.39	24.636
739.57	24.617
739.75	24.628
739.93	24.597
740.12	24.581
740.30	24.591
740.48	24.633
740.66	24.590
740.85	24.568
741.03	24.543
741.21	24.625
741.39	24.627
741.57	24.700
741.76	24.671
741.94	24.718
742.12	24.695
742.30	24.713
742.48	24.653
742.66	24.688
742.85	24.679
743.03	24.715
743.21	24.687
743.39	24.738
743.57	24.705
743.76	24.702
743.94	24.685
744.12	24.706
744.30	24.710
744.48	24.761
744.66	24.779
744.85	24.796
745.03	24.806
745.21	24.809
745.39	24.748
745.57	24.777
745.75	24.776
745.94	24.721
746.12	24.724
746.30	24.694
746.48	24.652
746.66	24.668
746.84	24.718
747.02	24.722
747.21	24.731
747.39	24.770
747.57	24.759
747.75	24.723
747.93	24.735
748.11	24.780
748.29	24.757
748.48	24.787
748.66	24.700
748.84	24.678
749.02	24.620
749.20	24.549
749.38	24.486
749.56	24.468
749.75	24.521
749.93	24.582
750.11	24.512
750.29	24.536
750.47	24.513
750.65	24.561
750.83	24.519
751.01	24.582
751.19	24.570
751.38	24.593
751.56	24.603
751.74	24.619
751.92	24.591
752.10	24.664
752.28	24.617
752.46	24.632
752.64	24.618
752.82	24.604
753.00	24.611
753.19	24.689
753.37	24.714
753.55	24.712
753.73	24.651
753.91	24.725
754.09	24.676
754.27	24.722
754.45	24.733
754.63	24.739
754.81	24.770
754.99	24.701
755.17	24.665
755.36	24.645
755.54	24.632
755.72	24.715
755.90	24.567
756.08	24.630
756.26	24.616
756.44	24.649
756.62	24.677
756.80	24.672
756.98	24.644
757.16	24.607
757.34	24.583
757.52	24.561
757.70	24.526
757.88	24.591
758.06	24.548
758.24	24.553
758.42	24.517
758.61	24.503
758.79	24.481
758.97	24.494
759.15	24.461
759.33	24.501
759.51	24.503
759.69	24.514
759.87	24.518
760.05	24.512
760.23	24.540
760.41	24.522
760.59	24.505
760.77	24.552
760.95	24.592
761.13	24.611
761.31	24.643
761.49	24.583
761.67	24.535
761.85	24.500
762.03	24.460
762.21	24.409
762.39	24.438
762.57	24.382
762.75	24.295
762.93	24.221
763.11	24.254
763.29	24.142
763.47	24.138
763.65	24.140
763.83	24.144
764.01	24.203
764.19	24.227
764.37	24.245
764.55	24.247
764.73	24.284
764.91	24.348
765.09	24.380
765.27	24.423
765.45	24.463
765.63	24.460
765.81	24.482
765.99	24.453
766.17	24.427
766.35	24.412
766.53	24.464
766.71	24.479
766.89	24.477
767.07	24.417
767.25	24.426
767.43	24.419
767.61	24.515
767.78	24.501
767.96	24.532
768.14	24.563
768.32	24.567
768.50	24.570
768.68	24.553
768.86	24.503
769.04	24.528
769.22	24.571
769.40	24.583
769.58	24.502
769.76	24.563
769.94	24.519
770.12	24.468
770.30	24.418
770.48	24.420
770.66	24.396
770.84	24.412
771.01	24.425
771.19	24.484
771.37	24.575
771.55	24.610
771.73	24.627
771.91	24.705
772.09	24.785
772.27	24.816
772.45	24.796
772.63	24.806
772.81	24.824
772.99	24.775
773.16	24.729
773.34	24.697
773.52	24.725
773.70	24.744
773.88	24.736
774.06	24.714
774.24	24.685
774.42	24.722
774.60	24.728
774.78	24.777
774.95	24.835
775.13	24.790
775.31	24.719
775.49	24.668
775.67	24.622
775.85	24.600
776.03	24.601
776.21	24.637
776.38	24.565
776.56	24.634
776.74	24.564
776.92	24.642
777.10	24.703
777.28	24.751
777.46	24.865
777.64	24.840
777.81	24.774
777.99	24.780
778.17	24.751
778.35	24.792
778.53	24.741
778.71	24.819
778.89	24.720
779.06	24.638
779.24	24.656
779.42	24.508
779.60	24.566
779.78	24.664
779.96	24.671
780.13	24.735
780.31	24.798
780.49	24.742
780.67	24.664
780.85	24.598
781.03	24.663
781.20	24.599
781.38	24.618
781.56	24.498
781.74	24.447
781.92	24.452
782.10	24.415
782.27	24.401
782.45	24.431
782.63	24.410
782.81	24.444
782.99	24.441
783.17	24.493
783.34	24.499
783.52	24.487
783.70	24.477
783.88	24.570
784.06	24.566
784.23	24.469
784.41	24.483
784.59	24.575
784.77	24.566
784.95	24.544
785.12	24.580
785.30	24.555
785.48	24.610
785.66	24.559
785.83	24.442
786.01	24.474
786.19	24.533
786.37	24.449
786.55	24.383
786.72	24.403
786.90	24.475
787.08	24.419
787.26	24.431
787.43	24.489
787.61	24.580
787.79	24.498
787.97	24.453
788.15	24.484
788.32	24.523
788.50	24.545
788.68	24.546
788.86	24.453
789.03	24.455
789.21	24.521
789.39	24.474
789.57	24.468
789.74	24.530
789.92	24.530
790.10	24.478
790.28	24.482
790.45	24.442
790.63	24.425
790.81	24.427
790.99	24.391
791.16	24.352
791.34	24.307
791.52	24.342
791.69	24.322
791.87	24.297
792.05	24.382
792.23	24.471
792.40	24.379
792.58	24.449
792.76	24.535
792.94	24.623
793.11	24.635
793.29	24.747
793.47	24.660
793.64	24.728
793.82	24.801
794.00	24.727
794.18	24.549
794.35	24.650
794.53	24.511
794.71	24.558
794.88	24.544
795.06	24.565
795.24	24.546
795.41	24.564
795.59	24.522
795.77	24.424
795.94	24.398
796.12	24.560
796.30	24.585
796.48	24.719
796.65	24.527
796.83	24.480
797.01	24.464
797.18	24.408
797.36	24.373
797.54	24.399
797.71	24.464
797.89	24.548
798.07	24.421
798.24	24.425
798.42	24.412
798.60	24.548
798.77	24.554
798.95	24.534
799.13	24.563
799.30	24.627
799.48	24.532
799.66	24.462
799.83	24.429
800.01	24.495
800.18	24.447
800.36	24.471
800.54	24.516
800.71	24.539
800.89	24.600
801.07	24.513
801.24	24.462
801.42	24.505
801.60	24.540
801.77	24.551
801.95	24.491
802.12	24.551
802.30	24.414
802.48	24.293
802.65	24.250
802.83	24.114
803.01	24.268
803.18	24.250
803.36	24.331
803.53	24.338
803.71	24.325
803.89	24.358
804.06	24.301
804.24	24.313
804.41	24.291
804.59	24.332
804.77	24.343
804.94	24.268
805.12	24.295
805.29	24.279
805.47	24.262
805.65	24.312
805.82	24.380
806.00	24.500
806.17	24.551
806.35	24.585
806.53	24.549
806.70	24.669
806.88	24.557
807.05	24.599
807.23	24.488
807.40	24.462
807.58	24.321
807.76	24.250
807.93	24.204
808.11	24.202
808.28	24.308
808.46	24.331
808.63	24.195
808.81	24.321
808.99	24.274
809.16	24.306
809.34	24.385
809.51	24.489
809.69	24.424
809.86	24.421
810.04	24.385
810.21	24.297
810.39	24.314
810.57	24.370
810.74	24.383
810.92	24.210
811.09	24.196
811.27	24.109
811.44	24.083
811.62	24.147
811.79	24.105
811.97	24.186
812.14	24.249
812.32	24.240
812.49	24.055
812.67	24.042
812.84	24.101
813.02	24.035
813.19	24.003
813.37	24.021
813.55	23.984
813.72	23.949
813.90	23.883
814.07	23.806
814.25	23.804
814.42	23.998
814.60	23.945
814.77	24.158
814.95	24.194
815.12	24.245
815.30	24.126
815.47	24.277
815.65	24.335
815.82	24.542
816.00	24.521
816.17	24.481
816.35	24.497
816.52	24.527
816.69	24.511
816.87	24.599
817.04	24.598
817.22	24.733
817.39	24.669
817.57	24.555
817.74	24.510
817.92	24.475
818.09	24.594
818.27	24.556
818.44	24.641
818.62	24.367
818.79	24.355
818.97	24.411
819.14	24.296
819.32	24.318
819.49	24.406
819.66	24.320
819.84	24.440
820.01	24.273
820.19	24.262
820.36	24.277
820.54	24.427
820.71	24.400
820.89	24.483
821.06	24.496
821.23	24.536
821.41	24.511
821.58	24.480
821.76	24.327
821.93	24.246
822.11	24.176
822.28	24.093
822.45	24.016
822.63	23.996
822.80	23.953
822.98	23.948
823.15	23.944
823.33	23.928
823.50	23.915
823.67	23.935
823.85	23.949
824.02	23.972
824.20	23.992
824.37	24.049
824.54	24.085
824.72	24.140
824.89	24.196
825.07	24.207
825.24	24.239
825.41	24.261
825.59	24.306
825.76	24.372
825.94	24.390
826.11	24.452
826.28	24.521
826.46	24.565
826.63	24.597
826.80	24.562
826.98	24.544
827.15	24.529
827.33	24.511
827.50	24.459
827.67	24.424
827.85	24.404
828.02	24.378
828.19	24.350
828.37	24.323
828.54	24.269
828.72	24.270
828.89	24.267
829.06	24.303
829.24	24.321
829.41	24.328
829.58	24.382
829.76	24.463
829.93	24.520
830.10	24.546
830.28	24.565
830.45	24.665
830.62	24.668
830.80	24.729
830.97	24.721
831.14	24.883
831.32	24.830
831.49	24.753
831.66	24.805
831.84	24.777
832.01	24.740
832.18	24.791
832.36	24.761
832.53	24.784
832.70	24.842
832.88	24.876
833.05	24.818
833.22	24.803
833.40	24.745
833.57	24.553
833.74	24.548
833.91	24.542
834.09	24.515
834.26	24.436
834.43	24.425
834.61	24.398
834.78	24.383
834.95	24.313
835.13	24.277
835.30	24.287
835.47	24.312
835.64	24.274
835.82	24.230
835.99	24.219
836.16	24.236
836.34	24.268
836.51	24.276
836.68	24.241
836.85	24.208
837.03	24.386
837.20	24.407
837.37	24.422
837.54	24.523
837.72	24.610
837.89	24.611
838.06	24.724
838.24	24.766
838.41	24.665
838.58	24.639
838.75	24.686
838.93	24.421
839.10	24.508
839.27	24.552
839.44	24.474
839.62	24.350
839.79	24.359
839.96	24.386
840.13	24.277
840.31	24.359
840.48	24.463
840.65	24.512
840.82	24.543
840.99	24.424
841.17	24.412
841.34	24.502
841.51	24.664
841.68	24.679
841.86	24.652
842.03	24.647
842.20	24.724
842.37	24.514
842.55	24.486
842.72	24.588
842.89	24.473
843.06	24.485
843.23	24.321
843.41	24.032
843.58	23.863
843.75	24.061
843.92	24.219
844.09	24.056
844.27	24.411
844.44	24.401
844.61	24.396
844.78	24.372
844.95	24.245
845.13	24.006
845.30	24.389
845.47	24.529
845.64	24.218
845.81	24.187
845.98	24.224
846.16	24.224
846.33	24.173
846.50	23.943
846.67	24.454
846.84	24.410
847.02	24.957
847.19	24.472
847.36	24.764
847.53	25.009
847.70	24.911
847.87	24.689
848.04	24.884
848.22	24.835
848.39	25.441
848.56	25.248
848.73	25.483
848.90	25.134
849.07	24.945
849.25	25.006
849.42	24.811
849.59	24.529
849.76	24.700
849.93	24.141
850.10	24.409
850.27	23.891
850.45	23.762
850.62	23.593
850.79	23.757
850.96	24.158
851.13	24.083
851.30	24.100
851.47	24.125
851.64	24.210
851.82	24.377
851.99	24.491
852.16	24.741
852.33	25.099
852.50	25.299
852.67	25.337
852.84	25.250
853.01	25.010
853.18	25.229
853.35	26.009
853.53	26.419
853.70	26.497
853.87	26.701
854.04	26.262
854.21	25.962
854.38	25.921
854.55	25.815
854.72	26.071
854.89	26.011
855.06	26.155
855.23	25.509
855.41	24.835
855.58	24.670
855.75	24.738
855.92	24.996
856.09	24.922
856.26	25.025
856.43	25.335
856.60	25.291
856.77	25.093
856.94	24.822
857.11	24.581
857.28	24.818
857.45	25.167
857.62	24.921
857.80	25.182
857.97	25.459
858.14	25.310
858.31	25.004
858.48	24.818
858.65	25.303
858.82	24.932
858.99	25.025
859.16	24.870
859.33	24.672
859.50	24.536
859.67	24.121
859.84	24.153
860.01	24.103
860.18	24.232
860.35	24.581
860.52	24.453
860.69	24.810
860.86	25.082
861.03	25.328
861.20	25.287
861.37	25.234
861.54	25.666
861.71	25.645
861.88	25.674
862.05	25.598
862.22	25.424
862.39	25.517
862.56	25.573
862.73	25.403
862.90	25.531
863.07	25.690
863.24	25.674
863.41	25.567
863.58	25.165
863.75	25.312
863.92	25.239
864.09	25.334
864.26	25.006
864.43	25.075
864.60	25.068
864.77	24.886
864.94	24.703
865.11	24.760
865.28	24.614
865.45	25.007
865.62	25.032
865.79	25.118
865.96	24.784
866.13	24.583
866.30	24.275
866.47	24.264
866.64	24.400
866.81	24.391
866.98	24.314
867.15	24.392
867.32	24.087
867.49	24.019
867.66	23.786
867.82	23.879
867.99	24.326
868.16	24.507
868.33	24.696
868.50	24.651
868.67	24.526
868.84	24.671
869.01	24.528
869.18	24.709
869.35	24.834
869.52	24.996
869.69	25.087
869.86	25.158
870.03	25.254
870.19	25.335
870.36	25.093
870.53	25.410
870.70	25.240
870.87	25.574
871.04	25.515
871.21	25.154
871.38	25.203
871.55	24.982
871.72	24.825
871.89	24.779
872.05	24.600
872.22	24.414
872.39	24.429
872.56	24.643
872.73	24.276
872.90	24.145
873.07	24.549
873.24	24.513
873.41	24.722
873.57	24.735
873.74	24.540
873.91	24.520
874.08	24.853
874.25	24.794
874.42	24.669
874.59	24.741
874.76	25.420
874.92	24.715
875.09	24.653
875.26	24.719
875.43	24.606
875.60	24.733
875.77	24.664
875.94	24.605
876.11	24.235
876.27	24.267
876.44	24.164
876.61	24.077
876.78	24.665
876.95	24.642
877.12	24.665
877.28	24.811
877.45	24.713
877.62	24.781
877.79	24.524
877.96	24.578
878.13	24.360
878.29	24.811
878.46	24.531
878.63	24.454
878.80	24.541
878.97	24.264
879.14	24.204
879.30	24.157
879.47	24.277
879.64	24.676
879.81	24.866
879.98	24.961
880.14	24.617
880.31	24.698
880.48	24.569
880.65	24.527
880.82	24.556
880.98	24.527
881.15	24.453
881.32	24.239
881.49	24.100
881.66	24.015
881.82	23.927
881.99	23.952
882.16	23.918
882.33	23.902
882.50	23.875
882.66	23.878
882.83	23.842
883.00	23.841
883.17	23.894
883.33	23.936
883.50	23.999
883.67	24.091
883.84	24.121
884.01	24.128
884.17	24.199
884.34	24.241
884.51	24.240
884.68	24.312
884.84	24.331
885.01	24.407
885.18	24.465
885.35	24.424
885.51	24.430
885.68	24.439
885.85	24.523
886.02	24.527
886.18	24.610
886.35	24.755
886.52	24.759
886.69	24.925
886.85	24.866
887.02	24.755
887.19	24.893
887.35	25.000
887.52	24.926
887.69	24.898
887.86	24.827
888.02	24.741
888.19	24.656
888.36	24.004
888.53	24.280
888.69	24.185
888.86	23.304
889.03	25.032
>>>>>End Spectral Data<<<<<
