OOIBase32 Version 2.0.6.5 Data File
++++++++++++++++++++++++++++++++++++
Date: 03-23-2011, 12:16:05
User: Valued Ocean Optics Customer
Spectrometer Serial Number: USB4C01507
Spectrometer Channel: Master
Integration Time (msec): 62
Spectra Averaged: 20
Boxcar Smoothing: 5
Correct for Electrical Dark: Enabled
Time Normalized: Disabled
Dual-beam Reference: Disabled
Reference Channel: Master
Temperature: Not acquired
Spectrometer Type: S4000
ADC Type: USB4000
Number of Pixels in File: 3648
Graph Title: 
>>>>>Begin Spectral Data<<<<<
178.53	47.711
178.74	2067.958
178.96	3.039
179.18	265.002
179.39	-303.016
179.61	-63.061
179.82	-190.286
180.04	151.905
180.25	99.407
180.47	-59.318
180.69	-956.702
180.90	4.784
181.12	-83.969
181.33	-16681.338
181.55	178.900
181.76	-34.289
181.98	-83.969
182.20	89.822
182.41	19.679
182.63	20.827
182.84	25.320
183.06	30.427
183.27	30.314
183.49	36.136
183.71	37.671
183.92	39.829
184.14	38.018
184.35	27.208
184.57	28.934
184.78	36.051
185.00	31.224
185.21	33.820
185.43	28.784
185.65	34.948
185.86	31.455
186.08	30.629
186.29	30.261
186.51	29.297
186.72	35.313
186.94	29.430
187.15	22.921
187.37	26.821
187.58	33.062
187.80	36.077
188.02	23.712
188.23	27.950
188.45	27.605
188.66	24.121
188.88	23.244
189.09	17.653
189.31	19.622
189.52	19.853
189.74	18.280
189.95	14.840
190.17	17.054
190.38	18.659
190.60	11.067
190.82	12.161
191.03	17.503
191.25	20.917
191.46	21.343
191.68	21.474
191.89	26.447
192.11	32.537
192.32	30.517
192.54	36.285
192.75	33.513
192.97	41.031
193.18	39.237
193.40	42.881
193.61	43.659
193.83	37.760
194.04	38.328
194.26	31.451
194.48	24.276
194.69	33.118
194.91	27.868
195.12	23.200
195.34	22.959
195.55	29.081
195.77	29.604
195.98	34.100
196.20	39.251
196.41	38.772
196.63	39.324
196.84	36.741
197.06	28.806
197.27	25.211
197.49	31.635
197.70	26.849
197.92	19.065
198.13	9.300
198.35	-2.545
198.56	-2.353
198.78	-2.677
198.99	-2.780
199.21	-5.807
199.42	-4.538
199.64	0.866
199.85	-2.147
200.07	-6.295
200.28	0.665
200.50	8.267
200.71	7.319
200.93	12.391
201.14	16.894
201.36	21.086
201.57	24.676
201.79	30.065
202.00	33.597
202.22	33.377
202.43	37.209
202.65	38.058
202.86	30.062
203.08	26.231
203.29	24.877
203.51	15.934
203.72	15.426
203.94	21.805
204.15	17.459
204.37	9.572
204.58	14.111
204.80	16.796
205.01	17.650
205.22	16.754
205.44	21.729
205.65	17.689
205.87	25.918
206.08	22.836
206.30	20.759
206.51	19.754
206.73	22.451
206.94	22.543
207.16	20.950
207.37	17.072
207.59	21.302
207.80	21.697
208.02	26.832
208.23	24.705
208.45	24.780
208.66	22.124
208.88	22.694
209.09	20.690
209.30	19.794
209.52	12.480
209.73	13.487
209.95	14.417
210.16	13.797
210.38	13.900
210.59	15.565
210.81	15.613
211.02	16.739
211.24	16.451
211.45	20.342
211.66	18.027
211.88	22.370
212.09	20.654
212.31	22.424
212.52	20.066
212.74	18.436
212.95	15.269
213.17	17.297
213.38	17.553
213.60	18.036
213.81	15.101
214.02	18.333
214.24	13.337
214.45	13.371
214.67	10.697
214.88	12.159
215.10	8.844
215.31	12.121
215.53	14.032
215.74	10.277
215.95	10.809
216.17	8.842
216.38	10.575
216.60	16.454
216.81	19.092
217.03	15.671
217.24	13.696
217.45	15.107
217.67	14.760
217.88	13.486
218.10	13.003
218.31	13.076
218.53	13.145
218.74	9.561
218.95	5.757
219.17	4.496
219.38	7.069
219.60	10.729
219.81	12.372
220.03	9.776
220.24	10.109
220.45	12.544
220.67	9.643
220.88	11.001
221.10	11.858
221.31	13.736
221.53	13.799
221.74	13.276
221.95	10.627
222.17	11.894
222.38	12.016
222.60	12.467
222.81	13.193
223.02	14.768
223.24	15.245
223.45	14.792
223.67	12.865
223.88	11.989
224.09	12.207
224.31	14.406
224.52	13.082
224.74	12.403
224.95	11.552
225.16	11.423
225.38	10.801
225.59	10.091
225.81	10.205
226.02	11.662
226.23	12.255
226.45	10.774
226.66	9.367
226.88	8.586
227.09	8.109
227.30	7.352
227.52	6.105
227.73	5.306
227.95	4.783
228.16	4.435
228.37	4.006
228.59	3.968
228.80	4.076
229.02	4.158
229.23	4.054
229.44	4.185
229.66	4.188
229.87	4.219
230.08	4.273
230.30	4.382
230.51	4.261
230.73	4.290
230.94	4.151
231.15	4.444
231.37	4.413
231.58	4.606
231.80	4.409
232.01	4.366
232.22	5.035
232.44	5.218
232.65	4.870
232.86	5.406
233.08	5.757
233.29	5.500
233.51	5.027
233.72	5.290
233.93	5.093
234.15	4.917
234.36	4.956
234.57	4.216
234.79	4.296
235.00	4.256
235.21	4.336
235.43	4.514
235.64	4.669
235.86	4.940
236.07	4.848
236.28	5.412
236.50	5.641
236.71	5.843
236.92	6.731
237.14	6.213
237.35	6.625
237.56	6.530
237.78	6.157
237.99	6.766
238.20	7.002
238.42	7.255
238.63	6.754
238.84	6.204
239.06	6.237
239.27	5.261
239.48	5.258
239.70	5.361
239.91	5.228
240.13	5.295
240.34	4.837
240.55	4.520
240.77	4.267
240.98	4.170
241.19	4.292
241.41	4.095
241.62	4.038
241.83	4.374
242.05	4.231
242.26	4.196
242.47	4.104
242.69	4.273
242.90	4.288
243.11	4.010
243.33	3.980
243.54	4.126
243.75	4.192
243.97	4.419
244.18	4.169
244.39	4.289
244.61	4.377
244.82	4.490
245.03	3.960
245.24	4.040
245.46	4.323
245.67	4.631
245.88	4.663
246.10	4.550
246.31	4.381
246.52	4.331
246.74	4.261
246.95	4.225
247.16	4.243
247.38	4.297
247.59	4.284
247.80	4.330
248.02	4.300
248.23	4.214
248.44	4.165
248.66	4.159
248.87	4.304
249.08	4.444
249.29	4.479
249.51	4.590
249.72	4.704
249.93	4.740
250.15	4.928
250.36	4.992
250.57	5.108
250.79	5.288
251.00	5.666
251.21	5.346
251.42	4.839
251.64	4.904
251.85	4.758
252.06	4.531
252.28	4.582
252.49	4.576
252.70	4.608
252.91	4.738
253.13	4.908
253.34	4.687
253.55	4.836
253.77	5.327
253.98	5.449
254.19	5.820
254.40	6.318
254.62	6.176
254.83	6.040
255.04	6.077
255.26	5.943
255.47	5.903
255.68	5.961
255.89	5.841
256.11	5.039
256.32	4.632
256.53	4.360
256.75	4.231
256.96	4.220
257.17	4.172
257.38	4.143
257.60	3.948
257.81	3.969
258.02	3.982
258.23	3.977
258.45	4.120
258.66	4.113
258.87	4.065
259.09	3.944
259.30	3.887
259.51	3.881
259.72	3.866
259.94	3.882
260.15	3.738
260.36	3.762
260.57	3.681
260.79	3.709
261.00	3.795
261.21	3.772
261.42	3.836
261.64	3.967
261.85	4.087
262.06	4.208
262.27	4.245
262.49	4.598
262.70	4.514
262.91	4.723
263.12	4.848
263.34	4.786
263.55	4.697
263.76	4.766
263.97	4.606
264.19	4.581
264.40	4.451
264.61	4.448
264.82	4.318
265.04	4.306
265.25	4.173
265.46	4.001
265.67	3.892
265.88	3.838
266.10	3.538
266.31	3.651
266.52	3.455
266.73	3.462
266.95	3.467
267.16	3.461
267.37	3.379
267.58	3.285
267.80	3.302
268.01	3.341
268.22	3.480
268.43	3.495
268.64	3.390
268.86	3.518
269.07	3.527
269.28	3.384
269.49	3.405
269.71	3.541
269.92	3.681
270.13	3.731
270.34	3.766
270.55	3.752
270.77	3.898
270.98	4.002
271.19	3.997
271.40	4.072
271.61	4.284
271.83	4.303
272.04	4.240
272.25	4.244
272.46	4.210
272.68	4.219
272.89	4.123
273.10	4.071
273.31	4.134
273.52	4.069
273.74	3.936
273.95	3.945
274.16	3.818
274.37	3.876
274.58	3.892
274.80	3.821
275.01	3.767
275.22	3.896
275.43	3.831
275.64	3.623
275.86	3.506
276.07	3.576
276.28	3.578
276.49	3.693
276.70	3.822
276.91	3.800
277.13	3.834
277.34	3.773
277.55	3.820
277.76	3.788
277.97	3.900
278.19	4.067
278.40	4.074
278.61	4.042
278.82	3.971
279.03	3.926
279.24	3.903
279.46	3.838
279.67	3.971
279.88	3.783
280.09	3.932
280.30	3.849
280.52	3.766
280.73	3.689
280.94	3.701
281.15	3.712
281.36	3.643
281.57	3.489
281.79	3.590
282.00	3.675
282.21	3.842
282.42	3.798
282.63	3.889
282.84	3.967
283.06	4.054
283.27	3.974
283.48	3.989
283.69	3.905
283.90	3.888
284.11	3.907
284.32	3.791
284.54	3.782
284.75	3.917
284.96	3.771
285.17	3.763
285.38	3.825
285.59	3.887
285.81	3.831
286.02	3.931
286.23	4.056
286.44	4.045
286.65	3.912
286.86	3.896
287.07	3.852
287.29	3.912
287.50	3.849
287.71	3.777
287.92	3.717
288.13	3.682
288.34	3.543
288.55	3.536
288.77	3.490
288.98	3.572
289.19	3.492
289.40	3.432
289.61	3.487
289.82	3.524
290.03	3.494
290.24	3.541
290.46	3.682
290.67	3.711
290.88	3.724
291.09	3.891
291.30	3.926
291.51	3.894
291.72	3.903
291.93	3.925
292.15	3.922
292.36	3.946
292.57	3.936
292.78	3.891
292.99	3.818
293.20	3.732
293.41	3.685
293.62	3.773
293.84	3.943
294.05	4.011
294.26	4.121
294.47	4.130
294.68	4.086
294.89	4.130
295.10	4.157
295.31	4.253
295.52	4.328
295.73	4.268
295.95	4.190
296.16	4.234
296.37	4.307
296.58	4.203
296.79	4.187
297.00	4.292
297.21	4.266
297.42	4.300
297.63	4.313
297.84	4.350
298.06	4.321
298.27	4.452
298.48	4.467
298.69	4.453
298.90	4.489
299.11	4.654
299.32	4.555
299.53	4.691
299.74	4.709
299.95	4.853
300.16	4.868
300.38	4.951
300.59	4.863
300.80	4.810
301.01	4.700
301.22	4.786
301.43	4.698
301.64	4.776
301.85	4.702
302.06	4.732
302.27	4.721
302.48	4.687
302.69	4.724
302.91	4.756
303.12	4.669
303.33	4.748
303.54	4.710
303.75	4.822
303.96	4.854
304.17	4.887
304.38	4.863
304.59	4.854
304.80	4.995
305.01	4.902
305.22	4.943
305.43	5.187
305.64	5.249
305.85	5.399
306.06	5.338
306.28	5.445
306.49	5.405
306.70	5.485
306.91	5.457
307.12	5.464
307.33	5.537
307.54	5.519
307.75	5.391
307.96	5.347
308.17	5.232
308.38	5.408
308.59	5.416
308.80	5.412
309.01	5.408
309.22	5.488
309.43	5.282
309.64	5.242
309.85	5.332
310.06	5.356
310.27	5.434
310.48	5.459
310.70	5.318
310.91	5.301
311.12	5.362
311.33	5.369
311.54	5.379
311.75	5.557
311.96	5.621
312.17	5.573
312.38	5.633
312.59	5.643
312.80	5.626
313.01	5.707
313.22	5.809
313.43	5.942
313.64	5.981
313.85	5.903
314.06	5.896
314.27	6.007
314.48	6.009
314.69	6.028
314.90	6.013
315.11	6.125
315.32	6.104
315.53	6.081
315.74	6.029
315.95	6.034
316.16	6.131
316.37	6.153
316.58	6.141
316.79	6.212
317.00	6.332
317.21	6.415
317.42	6.417
317.63	6.490
317.84	6.367
318.05	6.392
318.26	6.423
318.47	6.439
318.68	6.441
318.89	6.368
319.10	6.391
319.31	6.308
319.52	6.313
319.73	6.371
319.94	6.305
320.15	6.490
320.36	6.507
320.57	6.581
320.78	6.624
320.99	6.728
321.20	6.856
321.41	6.849
321.62	6.903
321.83	6.809
322.04	6.796
322.25	6.861
322.46	6.882
322.67	6.951
322.88	6.916
323.09	6.986
323.30	6.952
323.51	7.008
323.72	6.987
323.93	6.959
324.14	7.041
324.35	7.017
324.56	7.096
324.77	7.039
324.98	7.001
325.19	7.020
325.40	6.900
325.61	6.916
325.82	6.933
326.03	7.050
326.24	7.027
326.45	7.045
326.65	7.070
326.86	7.112
327.07	7.196
327.28	7.182
327.49	7.124
327.70	7.257
327.91	7.176
328.12	7.140
328.33	7.144
328.54	7.232
328.75	7.279
328.96	7.384
329.17	7.271
329.38	7.270
329.59	7.299
329.80	7.471
330.01	7.528
330.22	7.641
330.43	7.690
330.64	7.697
330.85	7.655
331.05	7.613
331.26	7.603
331.47	7.684
331.68	7.626
331.89	7.680
332.10	7.673
332.31	7.648
332.52	7.634
332.73	7.603
332.94	7.609
333.15	7.679
333.36	7.751
333.57	7.752
333.78	7.691
333.99	7.795
334.19	7.835
334.40	7.859
334.61	7.834
334.82	7.922
335.03	8.009
335.24	8.041
335.45	8.023
335.66	8.114
335.87	8.121
336.08	8.207
336.29	8.219
336.50	8.194
336.71	8.116
336.91	8.179
337.12	8.091
337.33	8.099
337.54	8.136
337.75	8.166
337.96	8.123
338.17	8.141
338.38	8.162
338.59	8.209
338.80	8.261
339.01	8.312
339.21	8.282
339.42	8.273
339.63	8.149
339.84	8.060
340.05	8.059
340.26	8.094
340.47	8.063
340.68	8.063
340.89	8.056
341.10	8.081
341.30	8.115
341.51	8.189
341.72	8.301
341.93	8.424
342.14	8.465
342.35	8.489
342.56	8.483
342.77	8.513
342.98	8.509
343.18	8.489
343.39	8.467
343.60	8.469
343.81	8.414
344.02	8.414
344.23	8.338
344.44	8.373
344.65	8.374
344.85	8.409
345.06	8.418
345.27	8.471
345.48	8.429
345.69	8.421
345.90	8.464
346.11	8.491
346.32	8.424
346.52	8.518
346.73	8.539
346.94	8.618
347.15	8.607
347.36	8.638
347.57	8.677
347.78	8.723
347.98	8.769
348.19	8.820
348.40	8.854
348.61	8.962
348.82	8.983
349.03	9.011
349.24	8.970
349.44	9.036
349.65	9.084
349.86	9.075
350.07	9.112
350.28	9.144
350.49	9.159
350.70	9.212
350.90	9.150
351.11	9.131
351.32	9.163
351.53	9.260
351.74	9.248
351.95	9.266
352.15	9.247
352.36	9.243
352.57	9.254
352.78	9.228
352.99	9.162
353.20	9.264
353.40	9.348
353.61	9.423
353.82	9.357
354.03	9.377
354.24	9.347
354.45	9.405
354.65	9.448
354.86	9.507
355.07	9.535
355.28	9.587
355.49	9.623
355.70	9.676
355.90	9.589
356.11	9.639
356.32	9.594
356.53	9.650
356.74	9.662
356.94	9.735
357.15	9.698
357.36	9.697
357.57	9.713
357.78	9.708
357.99	9.592
358.19	9.671
358.40	9.685
358.61	9.793
358.82	9.798
359.03	9.785
359.23	9.751
359.44	9.785
359.65	9.807
359.86	9.871
360.07	9.866
360.27	9.921
360.48	9.928
360.69	9.937
360.90	9.899
361.11	9.917
361.31	9.987
361.52	10.022
361.73	10.016
361.94	10.001
362.15	10.001
362.35	10.070
362.56	10.112
362.77	10.092
362.98	10.098
363.18	10.124
363.39	10.149
363.60	10.166
363.81	10.181
364.02	10.220
364.22	10.298
364.43	10.353
364.64	10.293
364.85	10.317
365.05	10.377
365.26	10.425
365.47	10.431
365.68	10.434
365.89	10.452
366.09	10.451
366.30	10.496
366.51	10.468
366.72	10.472
366.92	10.544
367.13	10.519
367.34	10.515
367.55	10.523
367.75	10.572
367.96	10.600
368.17	10.633
368.38	10.696
368.58	10.700
368.79	10.760
369.00	10.759
369.21	10.770
369.41	10.824
369.62	10.825
369.83	10.867
370.04	10.922
370.24	10.946
370.45	10.929
370.66	10.968
370.87	11.008
371.07	11.064
371.28	11.055
371.49	11.070
371.70	11.074
371.90	11.146
372.11	11.173
372.32	11.189
372.53	11.202
372.73	11.244
372.94	11.257
373.15	11.243
373.36	11.224
373.56	11.308
373.77	11.366
373.98	11.422
374.19	11.407
374.39	11.384
374.60	11.412
374.81	11.427
375.01	11.440
375.22	11.473
375.43	11.530
375.64	11.602
375.84	11.601
376.05	11.625
376.26	11.636
376.46	11.694
376.67	11.726
376.88	11.718
377.09	11.783
377.29	11.815
377.50	11.793
377.71	11.802
377.91	11.802
378.12	11.850
378.33	11.839
378.54	11.905
378.74	11.915
378.95	11.953
379.16	11.966
379.36	11.956
379.57	12.001
379.78	12.034
379.99	12.048
380.19	12.053
380.40	12.050
380.61	12.054
380.81	12.050
381.02	12.119
381.23	12.170
381.43	12.239
381.64	12.301
381.85	12.291
382.05	12.316
382.26	12.369
382.47	12.395
382.67	12.455
382.88	12.509
383.09	12.561
383.30	12.507
383.50	12.501
383.71	12.517
383.92	12.521
384.12	12.560
384.33	12.595
384.54	12.624
384.74	12.683
384.95	12.664
385.16	12.681
385.36	12.669
385.57	12.736
385.78	12.793
385.98	12.804
386.19	12.864
386.40	12.904
386.60	12.925
386.81	12.911
387.02	12.906
387.22	12.956
387.43	12.961
387.64	13.023
387.84	13.046
388.05	13.053
388.26	13.086
388.46	13.095
388.67	13.125
388.88	13.158
389.08	13.212
389.29	13.225
389.49	13.253
389.70	13.295
389.91	13.334
390.11	13.346
390.32	13.364
390.53	13.383
390.73	13.351
390.94	13.376
391.15	13.381
391.35	13.426
391.56	13.495
391.77	13.517
391.97	13.539
392.18	13.516
392.38	13.528
392.59	13.575
392.80	13.612
393.00	13.693
393.21	13.705
393.42	13.737
393.62	13.742
393.83	13.736
394.04	13.744
394.24	13.779
394.45	13.814
394.65	13.869
394.86	13.846
395.07	13.869
395.27	13.885
395.48	13.900
395.68	13.944
395.89	13.981
396.10	14.010
396.30	14.060
396.51	14.110
396.72	14.144
396.92	14.160
397.13	14.213
397.33	14.227
397.54	14.267
397.75	14.311
397.95	14.340
398.16	14.329
398.36	14.381
398.57	14.411
398.78	14.412
398.98	14.433
399.19	14.453
399.39	14.460
399.60	14.497
399.81	14.481
400.01	14.521
400.22	14.522
400.42	14.554
400.63	14.545
400.84	14.587
401.04	14.633
401.25	14.643
401.45	14.681
401.66	14.746
401.86	14.772
402.07	14.844
402.28	14.859
402.48	14.918
402.69	14.972
402.89	15.011
403.10	14.989
403.31	15.014
403.51	15.055
403.72	15.068
403.92	15.106
404.13	15.143
404.33	15.174
404.54	15.166
404.75	15.159
404.95	15.173
405.16	15.182
405.36	15.217
405.57	15.220
405.77	15.254
405.98	15.271
406.18	15.274
406.39	15.291
406.60	15.296
406.80	15.378
407.01	15.419
407.21	15.458
407.42	15.504
407.62	15.551
407.83	15.585
408.03	15.608
408.24	15.654
408.45	15.668
408.65	15.691
408.86	15.721
409.06	15.711
409.27	15.769
409.47	15.773
409.68	15.806
409.88	15.799
410.09	15.821
410.29	15.862
410.50	15.896
410.71	15.914
410.91	15.923
411.12	15.982
411.32	16.023
411.53	16.012
411.73	16.063
411.94	16.114
412.14	16.157
412.35	16.193
412.55	16.234
412.76	16.251
412.96	16.293
413.17	16.335
413.37	16.318
413.58	16.359
413.78	16.393
413.99	16.400
414.19	16.381
414.40	16.415
414.61	16.414
414.81	16.402
415.02	16.424
415.22	16.439
415.43	16.465
415.63	16.470
415.84	16.465
416.04	16.482
416.25	16.513
416.45	16.510
416.66	16.498
416.86	16.536
417.07	16.541
417.27	16.535
417.48	16.539
417.68	16.549
417.89	16.594
418.09	16.607
418.30	16.638
418.50	16.637
418.71	16.668
418.91	16.718
419.12	16.735
419.32	16.784
419.53	16.815
419.73	16.848
419.94	16.849
420.14	16.826
420.34	16.820
420.55	16.798
420.75	16.824
420.96	16.855
421.16	16.872
421.37	16.897
421.57	16.909
421.78	16.945
421.98	16.992
422.19	17.041
422.39	17.105
422.60	17.154
422.80	17.210
423.01	17.223
423.21	17.239
423.42	17.237
423.62	17.242
423.83	17.248
424.03	17.260
424.23	17.264
424.44	17.292
424.64	17.319
424.85	17.358
425.05	17.397
425.26	17.448
425.46	17.486
425.67	17.555
425.87	17.630
426.08	17.691
426.28	17.759
426.48	17.809
426.69	17.845
426.89	17.896
427.10	17.936
427.30	17.993
427.51	18.033
427.71	18.077
427.92	18.087
428.12	18.077
428.32	18.074
428.53	18.075
428.73	18.102
428.94	18.152
429.14	18.148
429.35	18.153
429.55	18.158
429.76	18.179
429.96	18.193
430.16	18.211
430.37	18.253
430.57	18.306
430.78	18.313
430.98	18.347
431.19	18.321
431.39	18.342
431.59	18.351
431.80	18.347
432.00	18.331
432.21	18.326
432.41	18.323
432.61	18.317
432.82	18.326
433.02	18.334
433.23	18.322
433.43	18.365
433.64	18.395
433.84	18.448
434.04	18.495
434.25	18.559
434.45	18.616
434.66	18.697
434.86	18.753
435.06	18.801
435.27	18.878
435.47	18.931
435.68	18.962
435.88	18.988
436.08	18.990
436.29	19.007
436.49	19.017
436.70	19.041
436.90	19.037
437.10	19.048
437.31	19.046
437.51	19.057
437.71	19.065
437.92	19.070
438.12	19.065
438.33	19.056
438.53	19.053
438.73	19.046
438.94	19.037
439.14	19.043
439.35	19.058
439.55	19.080
439.75	19.088
439.96	19.125
440.16	19.150
440.36	19.179
440.57	19.231
440.77	19.263
440.97	19.302
441.18	19.367
441.38	19.427
441.59	19.480
441.79	19.532
441.99	19.572
442.20	19.610
442.40	19.649
442.60	19.693
442.81	19.713
443.01	19.739
443.21	19.751
443.42	19.741
443.62	19.716
443.83	19.689
444.03	19.662
444.23	19.627
444.44	19.600
444.64	19.605
444.84	19.598
445.05	19.589
445.25	19.593
445.45	19.573
445.66	19.581
445.86	19.595
446.06	19.605
446.27	19.638
446.47	19.687
446.67	19.720
446.88	19.748
447.08	19.788
447.28	19.833
447.49	19.882
447.69	19.971
447.89	20.028
448.10	20.086
448.30	20.160
448.50	20.209
448.71	20.244
448.91	20.278
449.11	20.306
449.32	20.353
449.52	20.392
449.72	20.433
449.93	20.437
450.13	20.467
450.33	20.504
450.53	20.521
450.74	20.541
450.94	20.558
451.14	20.580
451.35	20.574
451.55	20.590
451.75	20.593
451.96	20.593
452.16	20.589
452.36	20.593
452.57	20.610
452.77	20.650
452.97	20.672
453.17	20.691
453.38	20.742
453.58	20.786
453.78	20.790
453.99	20.800
454.19	20.804
454.39	20.872
454.59	20.898
454.80	20.919
455.00	20.920
455.20	20.968
455.41	21.003
455.61	21.005
455.81	21.036
456.01	21.062
456.22	21.101
456.42	21.141
456.62	21.149
456.83	21.147
457.03	21.152
457.23	21.166
457.43	21.134
457.64	21.128
457.84	21.125
458.04	21.115
458.25	21.109
458.45	21.094
458.65	21.065
458.85	21.029
459.06	21.013
459.26	20.993
459.46	21.000
459.66	21.022
459.87	21.064
460.07	21.114
460.27	21.167
460.47	21.224
460.68	21.292
460.88	21.379
461.08	21.461
461.28	21.565
461.49	21.663
461.69	21.739
461.89	21.813
462.09	21.860
462.30	21.901
462.50	21.937
462.70	21.928
462.90	21.943
463.11	21.932
463.31	21.963
463.51	21.958
463.71	21.968
463.92	21.959
464.12	21.956
464.32	21.945
464.52	21.926
464.72	21.918
464.93	21.944
465.13	21.956
465.33	21.977
465.53	21.975
465.74	21.974
465.94	21.987
466.14	21.992
466.34	21.994
466.54	22.017
466.75	22.050
466.95	22.078
467.15	22.112
467.35	22.136
467.56	22.173
467.76	22.208
467.96	22.242
468.16	22.273
468.36	22.310
468.57	22.336
468.77	22.365
468.97	22.376
469.17	22.401
469.37	22.404
469.58	22.416
469.78	22.407
469.98	22.425
470.18	22.452
470.38	22.480
470.59	22.523
470.79	22.558
470.99	22.603
471.19	22.640
471.39	22.651
471.60	22.678
471.80	22.713
472.00	22.730
472.20	22.714
472.40	22.727
472.61	22.710
472.81	22.724
473.01	22.749
473.21	22.754
473.41	22.773
473.61	22.826
473.82	22.860
474.02	22.885
474.22	22.935
474.42	22.983
474.62	23.008
474.82	23.041
475.03	23.057
475.23	23.058
475.43	23.054
475.63	23.047
475.83	23.018
476.03	23.034
476.24	23.048
476.44	23.027
476.64	23.036
476.84	23.051
477.04	23.079
477.24	23.086
477.45	23.120
477.65	23.145
477.85	23.176
478.05	23.193
478.25	23.213
478.45	23.225
478.65	23.273
478.86	23.312
479.06	23.324
479.26	23.325
479.46	23.352
479.66	23.362
479.86	23.383
480.06	23.395
480.27	23.413
480.47	23.419
480.67	23.396
480.87	23.366
481.07	23.359
481.27	23.361
481.47	23.369
481.68	23.369
481.88	23.374
482.08	23.357
482.28	23.365
482.48	23.339
482.68	23.272
482.88	23.285
483.08	23.564
483.29	23.952
483.49	24.218
483.69	24.166
483.89	24.087
484.09	24.116
484.29	24.174
484.49	24.237
484.69	24.335
484.89	24.474
485.10	24.606
485.30	24.548
485.50	24.308
485.70	24.064
485.90	24.133
486.10	24.241
486.30	24.189
486.50	24.104
486.70	24.007
486.90	23.894
487.11	23.820
487.31	23.764
487.51	23.738
487.71	23.729
487.91	23.763
488.11	23.814
488.31	23.886
488.51	23.961
488.71	24.042
488.91	24.122
489.11	24.224
489.32	24.313
489.52	24.419
489.72	24.500
489.92	24.554
490.12	24.561
490.32	24.517
490.52	24.418
490.72	24.323
490.92	24.215
491.12	24.150
491.32	24.107
491.52	24.085
491.72	24.091
491.92	24.119
492.13	24.172
492.33	24.223
492.53	24.306
492.73	24.415
492.93	24.548
493.13	24.695
493.33	24.815
493.53	24.924
493.73	25.013
493.93	25.073
494.13	25.111
494.33	25.091
494.53	25.082
494.73	25.060
494.93	25.050
495.13	25.008
495.33	24.976
495.53	24.941
495.73	24.916
495.94	24.885
496.14	24.847
496.34	24.831
496.54	24.845
496.74	24.862
496.94	24.875
497.14	24.882
497.34	24.898
497.54	24.919
497.74	24.967
497.94	25.005
498.14	25.052
498.34	25.107
498.54	25.153
498.74	25.193
498.94	25.212
499.14	25.236
499.34	25.281
499.54	25.304
499.74	25.328
499.94	25.357
500.14	25.398
500.34	25.442
500.54	25.468
500.74	25.472
500.94	25.483
501.14	25.517
501.34	25.522
501.54	25.513
501.74	25.525
501.94	25.534
502.14	25.539
502.34	25.540
502.54	25.541
502.74	25.550
502.94	25.561
503.14	25.562
503.34	25.548
503.54	25.564
503.74	25.581
503.94	25.593
504.14	25.610
504.34	25.640
504.54	25.665
504.74	25.694
504.94	25.705
505.14	25.737
505.34	25.767
505.54	25.803
505.74	25.808
505.94	25.836
506.14	25.855
506.34	25.859
506.54	25.855
506.74	25.860
506.94	25.861
507.14	25.873
507.34	25.880
507.54	25.892
507.74	25.891
507.94	25.910
508.14	25.915
508.34	25.905
508.54	25.935
508.74	25.969
508.94	25.979
509.13	26.008
509.33	26.021
509.53	26.050
509.73	26.078
509.93	26.123
510.13	26.156
510.33	26.181
510.53	26.227
510.73	26.236
510.93	26.221
511.13	26.231
511.33	26.231
511.53	26.241
511.73	26.240
511.93	26.229
512.13	26.237
512.33	26.245
512.53	26.264
512.73	26.300
512.92	26.334
513.12	26.379
513.32	26.429
513.52	26.454
513.72	26.485
513.92	26.521
514.12	26.563
514.32	26.592
514.52	26.625
514.72	26.637
514.92	26.634
515.12	26.641
515.32	26.637
515.52	26.633
515.71	26.642
515.91	26.661
516.11	26.648
516.31	26.648
516.51	26.615
516.71	26.618
516.91	26.615
517.11	26.610
517.31	26.603
517.51	26.564
517.71	26.542
517.90	26.521
518.10	26.514
518.30	26.540
518.50	26.550
518.70	26.583
518.90	26.608
519.10	26.635
519.30	26.657
519.50	26.709
519.69	26.797
519.89	26.871
520.09	26.947
520.29	27.012
520.49	27.044
520.69	27.100
520.89	27.153
521.09	27.187
521.29	27.218
521.48	27.256
521.68	27.272
521.88	27.264
522.08	27.265
522.28	27.272
522.48	27.272
522.68	27.303
522.88	27.289
523.07	27.295
523.27	27.290
523.47	27.307
523.67	27.334
523.87	27.318
524.07	27.340
524.27	27.338
524.47	27.313
524.66	27.286
524.86	27.248
525.06	27.226
525.26	27.194
525.46	27.184
525.66	27.176
525.85	27.185
526.05	27.206
526.25	27.224
526.45	27.262
526.65	27.320
526.85	27.373
527.05	27.395
527.24	27.392
527.44	27.342
527.64	27.290
527.84	27.262
528.04	27.255
528.24	27.244
528.43	27.254
528.63	27.277
528.83	27.314
529.03	27.366
529.23	27.436
529.43	27.525
529.62	27.637
529.82	27.761
530.02	27.884
530.22	27.985
530.42	28.109
530.62	28.202
530.81	28.264
531.01	28.281
531.21	28.264
531.41	28.232
531.61	28.172
531.80	28.116
532.00	28.026
532.20	27.925
532.40	27.825
532.60	27.721
532.79	27.647
532.99	27.612
533.19	27.588
533.39	27.598
533.59	27.628
533.78	27.678
533.98	27.735
534.18	27.805
534.38	27.898
534.58	28.012
534.77	28.145
534.97	28.259
535.17	28.338
535.37	28.406
535.57	28.397
535.76	28.329
535.96	28.248
536.16	28.153
536.36	28.109
536.56	28.066
536.75	28.042
536.95	28.027
537.15	28.039
537.35	28.070
537.54	28.111
537.74	28.202
537.94	28.300
538.14	28.396
538.34	28.517
538.53	28.586
538.73	28.625
538.93	28.652
539.13	28.685
539.32	28.697
539.52	28.663
539.72	28.612
539.92	28.517
540.11	28.412
540.31	28.267
540.51	28.131
540.71	28.042
540.90	27.989
541.10	27.969
541.30	27.970
541.50	27.999
541.69	28.044
541.89	28.098
542.09	28.167
542.29	28.248
542.48	28.373
542.68	28.493
542.88	28.613
543.08	28.741
543.27	28.850
543.47	28.925
543.67	28.980
543.87	29.007
544.06	29.014
544.26	29.017
544.46	29.012
544.65	29.001
544.85	29.018
545.05	29.001
545.25	28.996
545.44	28.971
545.64	28.922
545.84	28.858
546.04	28.820
546.23	28.786
546.43	28.770
546.63	28.758
546.82	28.780
547.02	28.783
547.22	28.823
547.42	28.868
547.61	28.916
547.81	28.996
548.01	29.070
548.20	29.142
548.40	29.227
548.60	29.285
548.79	29.341
548.99	29.348
549.19	29.352
549.39	29.378
549.58	29.359
549.78	29.345
549.98	29.342
550.17	29.339
550.37	29.310
550.57	29.285
550.76	29.282
550.96	29.300
551.16	29.312
551.35	29.320
551.55	29.283
551.75	29.262
551.94	29.250
552.14	29.212
552.34	29.217
552.53	29.240
552.73	29.270
552.93	29.290
553.13	29.316
553.32	29.353
553.52	29.391
553.72	29.443
553.91	29.494
554.11	29.529
554.31	29.600
554.50	29.637
554.70	29.660
554.89	29.675
555.09	29.693
555.29	29.700
555.48	29.680
555.68	29.698
555.88	29.705
556.07	29.698
556.27	29.718
556.47	29.702
556.66	29.707
556.86	29.720
557.06	29.713
557.25	29.723
557.45	29.731
557.65	29.755
557.84	29.758
558.04	29.780
558.23	29.807
558.43	29.827
558.63	29.857
558.82	29.882
559.02	29.907
559.22	29.941
559.41	29.946
559.61	29.962
559.81	29.986
560.00	29.978
560.20	29.975
560.39	29.974
560.59	29.981
560.79	29.994
560.98	29.994
561.18	29.989
561.37	30.001
561.57	30.024
561.77	30.017
561.96	30.016
562.16	30.056
562.36	30.083
562.55	30.101
562.75	30.114
562.94	30.129
563.14	30.162
563.34	30.188
563.53	30.218
563.73	30.237
563.92	30.263
564.12	30.269
564.32	30.283
564.51	30.268
564.71	30.254
564.90	30.238
565.10	30.208
565.29	30.180
565.49	30.151
565.69	30.134
565.88	30.098
566.08	30.103
566.27	30.115
566.47	30.106
566.67	30.140
566.86	30.179
567.06	30.226
567.25	30.272
567.45	30.325
567.64	30.383
567.84	30.420
568.04	30.482
568.23	30.489
568.43	30.517
568.62	30.538
568.82	30.536
569.01	30.535
569.21	30.526
569.41	30.553
569.60	30.535
569.80	30.533
569.99	30.539
570.19	30.525
570.38	30.539
570.58	30.523
570.77	30.506
570.97	30.488
571.17	30.475
571.36	30.465
571.56	30.447
571.75	30.450
571.95	30.461
572.14	30.457
572.34	30.493
572.53	30.537
572.73	30.569
572.92	30.611
573.12	30.681
573.31	30.721
573.51	30.750
573.70	30.768
573.90	30.773
574.10	30.772
574.29	30.782
574.49	30.780
574.68	30.734
574.88	30.744
575.07	30.753
575.27	30.743
575.46	30.757
575.66	30.783
575.85	30.807
576.05	30.840
576.24	30.872
576.44	30.896
576.63	30.936
576.83	30.975
577.02	30.984
577.22	30.997
577.41	30.995
577.61	31.005
577.80	31.009
578.00	31.005
578.19	31.018
578.39	31.046
578.58	31.067
578.78	31.067
578.97	31.075
579.17	31.078
579.36	31.087
579.56	31.125
579.75	31.133
579.95	31.156
580.14	31.213
580.34	31.204
580.53	31.209
580.73	31.205
580.92	31.216
581.12	31.238
581.31	31.250
581.51	31.275
581.70	31.268
581.89	31.271
582.09	31.256
582.28	31.205
582.48	31.247
582.67	31.247
582.87	31.275
583.06	31.268
583.26	31.279
583.45	31.312
583.65	31.304
583.84	31.330
584.04	31.366
584.23	31.405
584.43	31.445
584.62	31.414
584.81	31.413
585.01	31.408
585.20	31.433
585.40	31.446
585.59	31.433
585.79	31.442
585.98	31.444
586.18	31.418
586.37	31.412
586.56	31.417
586.76	31.449
586.95	31.480
587.15	31.461
587.34	31.447
587.54	31.448
587.73	31.473
587.92	31.511
588.12	31.494
588.31	31.551
588.51	31.528
588.70	31.531
588.90	31.530
589.09	31.524
589.28	31.529
589.48	31.538
589.67	31.569
589.87	31.573
590.06	31.556
590.25	31.586
590.45	31.559
590.64	31.583
590.84	31.609
591.03	31.626
591.23	31.635
591.42	31.696
591.61	31.717
591.81	31.708
592.00	31.727
592.20	31.762
592.39	31.783
592.58	31.785
592.78	31.803
592.97	31.802
593.17	31.784
593.36	31.783
593.55	31.763
593.75	31.763
593.94	31.762
594.13	31.748
594.33	31.724
594.52	31.733
594.72	31.762
594.91	31.784
595.10	31.795
595.30	31.856
595.49	31.858
595.68	31.846
595.88	31.828
596.07	31.801
596.27	31.774
596.46	31.742
596.65	31.673
596.85	31.655
597.04	31.649
597.23	31.650
597.43	31.636
597.62	31.690
597.81	31.743
598.01	31.799
598.20	31.865
598.40	31.934
598.59	32.010
598.78	32.120
598.98	32.180
599.17	32.231
599.36	32.284
599.56	32.313
599.75	32.291
599.94	32.288
600.14	32.280
600.33	32.256
600.52	32.240
600.72	32.245
600.91	32.238
601.10	32.229
601.30	32.212
601.49	32.203
601.68	32.202
601.88	32.207
602.07	32.191
602.26	32.166
602.46	32.156
602.65	32.122
602.84	32.088
603.04	32.054
603.23	32.018
603.42	31.987
603.62	31.938
603.81	31.882
604.00	31.858
604.20	31.843
604.39	31.834
604.58	31.838
604.77	31.869
604.97	31.899
605.16	31.930
605.35	31.976
605.55	32.027
605.74	32.124
605.93	32.237
606.13	32.323
606.32	32.405
606.51	32.489
606.70	32.534
606.90	32.568
607.09	32.595
607.28	32.615
607.48	32.622
607.67	32.610
607.86	32.567
608.05	32.520
608.25	32.443
608.44	32.392
608.63	32.321
608.83	32.286
609.02	32.275
609.21	32.233
609.40	32.202
609.60	32.208
609.79	32.216
609.98	32.222
610.17	32.235
610.37	32.312
610.56	32.345
610.75	32.429
610.95	32.494
611.14	32.542
611.33	32.616
611.52	32.699
611.72	32.714
611.91	32.756
612.10	32.754
612.29	32.784
612.49	32.745
612.68	32.785
612.87	32.770
613.06	32.786
613.26	32.790
613.45	32.819
613.64	32.807
613.83	32.821
614.03	32.798
614.22	32.842
614.41	32.836
614.60	32.876
614.79	32.862
614.99	32.870
615.18	32.873
615.37	32.890
615.56	32.864
615.76	32.847
615.95	32.853
616.14	32.897
616.33	32.897
616.53	32.919
616.72	32.912
616.91	32.902
617.10	32.909
617.29	32.897
617.49	32.896
617.68	32.904
617.87	32.930
618.06	32.949
618.25	32.927
618.45	32.940
618.64	32.912
618.83	32.915
619.02	32.918
619.21	32.925
619.41	32.937
619.60	32.945
619.79	32.957
619.98	32.959
620.17	32.972
620.37	32.977
620.56	32.982
620.75	33.000
620.94	33.025
621.13	33.033
621.33	33.034
621.52	33.039
621.71	33.048
621.90	33.050
622.09	33.072
622.28	33.066
622.48	33.107
622.67	33.092
622.86	33.102
623.05	33.081
623.24	33.100
623.44	33.113
623.63	33.118
623.82	33.136
624.01	33.123
624.20	33.123
624.39	33.125
624.59	33.127
624.78	33.139
624.97	33.153
625.16	33.162
625.35	33.138
625.54	33.131
625.73	33.123
625.93	33.091
626.12	33.086
626.31	33.039
626.50	33.026
626.69	32.998
626.88	33.006
627.07	32.999
627.27	33.011
627.46	33.048
627.65	33.076
627.84	33.108
628.03	33.154
628.22	33.187
628.41	33.267
628.61	33.297
628.80	33.371
628.99	33.403
629.18	33.454
629.37	33.483
629.56	33.483
629.75	33.505
629.94	33.541
630.14	33.526
630.33	33.548
630.52	33.536
630.71	33.548
630.90	33.529
631.09	33.523
631.28	33.510
631.47	33.513
631.66	33.563
631.86	33.578
632.05	33.547
632.24	33.545
632.43	33.559
632.62	33.542
632.81	33.522
633.00	33.491
633.19	33.478
633.38	33.485
633.57	33.452
633.77	33.413
633.96	33.414
634.15	33.436
634.34	33.466
634.53	33.457
634.72	33.488
634.91	33.562
635.10	33.575
635.29	33.631
635.48	33.635
635.67	33.699
635.86	33.714
636.05	33.711
636.25	33.672
636.44	33.668
636.63	33.677
636.82	33.695
637.01	33.641
637.20	33.675
637.39	33.639
637.58	33.646
637.77	33.645
637.96	33.651
638.15	33.665
638.34	33.725
638.53	33.761
638.72	33.769
638.91	33.762
639.10	33.804
639.30	33.840
639.49	33.847
639.68	33.865
639.87	33.846
640.06	33.861
640.25	33.886
640.44	33.895
640.63	33.861
640.82	33.889
641.01	33.889
641.20	33.881
641.39	33.868
641.58	33.868
641.77	33.874
641.96	33.891
642.15	33.925
642.34	33.891
642.53	33.874
642.72	33.902
642.91	33.875
643.10	33.895
643.29	33.931
643.48	33.919
643.67	33.954
643.86	33.975
644.05	33.971
644.24	33.950
644.43	33.973
644.62	33.986
644.81	33.992
645.00	34.015
645.19	34.024
645.38	33.992
645.57	34.015
645.76	34.020
645.95	33.991
646.14	33.989
646.33	33.983
646.52	33.957
646.71	33.967
646.90	33.965
647.09	33.982
647.28	33.974
647.47	33.962
647.66	33.981
647.85	33.976
648.04	34.017
648.23	34.039
648.42	34.072
648.61	34.134
648.80	34.157
648.99	34.176
649.18	34.163
649.37	34.173
649.56	34.199
649.75	34.162
649.94	34.147
650.13	34.117
650.32	34.139
650.51	34.125
650.70	34.091
650.89	34.081
651.08	34.076
651.27	34.097
651.46	34.086
651.65	34.102
651.83	34.135
652.02	34.162
652.21	34.196
652.40	34.219
652.59	34.235
652.78	34.291
652.97	34.309
653.16	34.334
653.35	34.325
653.54	34.377
653.73	34.386
653.92	34.396
654.11	34.418
654.30	34.433
654.49	34.420
654.68	34.428
654.86	34.397
655.05	34.398
655.24	34.367
655.43	34.414
655.62	34.359
655.81	34.357
656.00	34.386
656.19	34.381
656.38	34.394
656.57	34.375
656.76	34.382
656.95	34.376
657.13	34.367
657.32	34.406
657.51	34.377
657.70	34.415
657.89	34.414
658.08	34.352
658.27	34.281
658.46	34.227
658.65	34.205
658.84	34.152
659.02	34.139
659.21	34.130
659.40	34.115
659.59	34.136
659.78	34.156
659.97	34.164
660.16	34.182
660.35	34.268
660.54	34.329
660.72	34.402
660.91	34.481
661.10	34.529
661.29	34.595
661.48	34.629
661.67	34.642
661.86	34.657
662.05	34.691
662.23	34.749
662.42	34.750
662.61	34.744
662.80	34.743
662.99	34.730
663.18	34.731
663.37	34.708
663.56	34.735
663.74	34.744
663.93	34.697
664.12	34.721
664.31	34.688
664.50	34.688
664.69	34.695
664.87	34.660
665.06	34.688
665.25	34.705
665.44	34.702
665.63	34.667
665.82	34.666
666.01	34.727
666.19	34.716
666.38	34.733
666.57	34.746
666.76	34.744
666.95	34.778
667.14	34.767
667.32	34.742
667.51	34.753
667.70	34.788
667.89	34.785
668.08	34.758
668.26	34.742
668.45	34.737
668.64	34.710
668.83	34.705
669.02	34.706
669.21	34.729
669.39	34.763
669.58	34.767
669.77	34.756
669.96	34.748
670.15	34.748
670.33	34.781
670.52	34.812
670.71	34.831
670.90	34.865
671.09	34.862
671.27	34.907
671.46	34.893
671.65	34.885
671.84	34.887
672.03	34.904
672.21	34.913
672.40	34.917
672.59	34.893
672.78	34.895
672.96	34.878
673.15	34.914
673.34	34.843
673.53	34.868
673.72	34.857
673.90	34.857
674.09	34.863
674.28	34.890
674.47	34.872
674.65	34.888
674.84	34.926
675.03	34.925
675.22	34.923
675.41	34.972
675.59	34.936
675.78	35.006
675.97	34.994
676.16	34.993
676.34	35.000
676.53	35.027
676.72	35.029
676.91	35.028
677.09	35.030
677.28	35.001
677.47	35.010
677.66	35.055
677.84	35.048
678.03	35.053
678.22	35.040
678.41	35.032
678.59	34.997
678.78	34.980
678.97	34.965
679.15	34.937
679.34	34.926
679.53	34.894
679.72	34.850
679.90	34.827
680.09	34.808
680.28	34.847
680.47	34.867
680.65	34.911
680.84	34.951
681.03	34.993
681.21	35.054
681.40	35.138
681.59	35.175
681.78	35.203
681.96	35.210
682.15	35.264
682.34	35.263
682.52	35.232
682.71	35.245
682.90	35.246
683.08	35.235
683.27	35.239
683.46	35.195
683.65	35.194
683.83	35.230
684.02	35.284
684.21	35.285
684.39	35.307
684.58	35.342
684.77	35.338
684.95	35.350
685.14	35.375
685.33	35.372
685.51	35.392
685.70	35.364
685.89	35.396
686.07	35.371
686.26	35.394
686.45	35.383
686.63	35.386
686.82	35.400
687.01	35.344
687.20	35.289
687.38	35.276
687.57	35.247
687.75	35.302
687.94	35.246
688.13	35.245
688.31	35.267
688.50	35.272
688.69	35.298
688.87	35.299
689.06	35.354
689.25	35.396
689.43	35.417
689.62	35.441
689.81	35.418
689.99	35.456
690.18	35.439
690.37	35.424
690.55	35.452
690.74	35.462
690.93	35.464
691.11	35.476
691.30	35.490
691.48	35.478
691.67	35.505
691.86	35.533
692.04	35.541
692.23	35.573
692.42	35.584
692.60	35.575
692.79	35.599
692.97	35.619
693.16	35.613
693.35	35.575
693.53	35.560
693.72	35.576
693.90	35.607
694.09	35.637
694.28	35.659
694.46	35.673
694.65	35.671
694.83	35.636
695.02	35.578
695.21	35.602
695.39	35.626
695.58	35.628
695.76	35.588
695.95	35.538
696.14	35.546
696.32	35.552
696.51	35.529
696.69	35.548
696.88	35.502
697.07	35.481
697.25	35.403
697.44	35.378
697.62	35.393
697.81	35.322
697.99	35.267
698.18	35.175
698.37	35.087
698.55	35.024
698.74	34.952
698.92	34.947
699.11	34.996
699.29	35.048
699.48	35.127
699.67	35.178
699.85	35.271
700.04	35.375
700.22	35.464
700.41	35.605
700.59	35.743
700.78	35.883
700.96	35.975
701.15	36.013
701.34	36.063
701.52	36.036
701.71	36.058
701.89	36.040
702.08	36.026
702.26	36.022
702.45	35.963
702.63	35.895
702.82	35.815
703.00	35.788
703.19	35.746
703.38	35.678
703.56	35.678
703.75	35.631
703.93	35.632
704.12	35.581
704.30	35.611
704.49	35.640
704.67	35.683
704.86	35.764
705.04	35.718
705.23	35.736
705.41	35.786
705.60	35.762
705.78	35.776
705.97	35.793
706.15	35.788
706.34	35.778
706.52	35.703
706.71	35.661
706.89	35.616
707.08	35.683
707.26	35.731
707.45	35.718
707.63	35.700
707.82	35.699
708.00	35.673
708.19	35.714
708.37	35.670
708.56	35.706
708.74	35.727
708.93	35.714
709.11	35.716
709.30	35.647
709.48	35.690
709.67	35.732
709.85	35.709
710.04	35.683
710.22	35.637
710.41	35.635
710.59	35.611
710.77	35.612
710.96	35.648
711.14	35.622
711.33	35.660
711.51	35.613
711.70	35.616
711.88	35.666
712.07	35.691
712.25	35.728
712.44	35.771
712.62	35.827
712.80	35.851
712.99	35.871
713.17	35.925
713.36	35.913
713.54	35.932
713.73	35.945
713.91	35.923
714.10	35.942
714.28	35.911
714.46	35.920
714.65	35.933
714.83	35.948
715.02	35.904
715.20	35.841
715.39	35.834
715.57	35.810
715.75	35.817
715.94	35.832
716.12	35.803
716.31	35.879
716.49	35.846
716.68	35.872
716.86	35.841
717.04	35.910
717.23	35.919
717.41	35.952
717.60	36.041
717.78	36.080
717.96	36.096
718.15	36.141
718.33	36.134
718.52	36.154
718.70	36.107
718.88	36.121
719.07	36.054
719.25	36.098
719.44	36.069
719.62	35.995
719.80	35.925
719.99	35.944
720.17	35.933
720.36	35.958
720.54	35.988
720.72	35.977
720.91	36.026
721.09	36.009
721.27	36.039
721.46	36.071
721.64	36.124
721.83	36.164
722.01	36.138
722.19	36.174
722.38	36.101
722.56	36.075
722.74	36.107
722.93	36.057
723.11	36.113
723.30	36.124
723.48	36.125
723.66	36.124
723.85	36.108
724.03	36.102
724.21	36.064
724.40	36.071
724.58	36.054
724.76	36.073
724.95	36.054
725.13	36.073
725.31	36.014
725.50	36.023
725.68	35.998
725.86	35.965
726.05	35.971
726.23	36.013
726.41	36.040
726.60	36.030
726.78	35.984
726.96	35.994
727.15	35.943
727.33	35.954
727.51	35.976
727.70	36.020
727.88	35.975
728.06	35.935
728.25	35.916
728.43	35.919
728.61	35.960
728.80	36.023
728.98	36.037
729.16	36.058
729.34	36.075
729.53	36.060
729.71	35.989
729.89	35.995
730.08	36.053
730.26	35.997
730.44	35.985
730.63	35.953
730.81	35.854
730.99	35.903
731.17	35.856
731.36	35.818
731.54	35.832
731.72	35.867
731.91	35.946
732.09	35.935
732.27	35.965
732.45	35.898
732.64	35.898
732.82	35.931
733.00	35.912
733.19	35.979
733.37	36.000
733.55	35.991
733.73	35.962
733.92	35.985
734.10	35.997
734.28	36.049
734.46	36.143
734.65	36.195
734.83	36.247
735.01	36.244
735.19	36.266
735.38	36.304
735.56	36.292
735.74	36.351
735.92	36.363
736.11	36.380
736.29	36.368
736.47	36.264
736.65	36.275
736.84	36.260
737.02	36.299
737.20	36.240
737.38	36.167
737.57	36.195
737.75	36.164
737.93	36.094
738.11	36.048
738.30	36.048
738.48	36.129
738.66	36.077
738.84	36.070
739.02	35.994
739.21	36.013
739.39	36.023
739.57	36.018
739.75	36.082
739.93	36.093
740.12	36.057
740.30	36.017
740.48	36.028
740.66	36.043
740.85	36.069
741.03	36.110
741.21	36.117
741.39	36.166
741.57	36.221
741.76	36.168
741.94	36.209
742.12	36.232
742.30	36.221
742.48	36.214
742.66	36.244
742.85	36.259
743.03	36.279
743.21	36.251
743.39	36.254
743.57	36.219
743.76	36.234
743.94	36.168
744.12	36.123
744.30	36.216
744.48	36.212
744.66	36.248
744.85	36.232
745.03	36.230
745.21	36.283
745.39	36.290
745.57	36.298
745.75	36.350
745.94	36.391
746.12	36.446
746.30	36.385
746.48	36.386
746.66	36.321
746.84	36.284
747.02	36.294
747.21	36.313
747.39	36.304
747.57	36.267
747.75	36.224
747.93	36.172
748.11	36.186
748.29	36.244
748.48	36.257
748.66	36.248
748.84	36.293
749.02	36.251
749.20	36.158
749.38	36.124
749.56	36.081
749.75	36.060
749.93	36.141
750.11	36.148
750.29	36.138
750.47	36.171
750.65	36.193
750.83	36.162
751.01	36.197
751.19	36.298
751.38	36.297
751.56	36.380
751.74	36.385
751.92	36.325
752.10	36.315
752.28	36.307
752.46	36.245
752.64	36.227
752.82	36.179
753.00	36.189
753.19	36.159
753.37	36.220
753.55	36.168
753.73	36.148
753.91	36.229
754.09	36.268
754.27	36.255
754.45	36.279
754.63	36.333
754.81	36.388
754.99	36.378
755.17	36.398
755.36	36.378
755.54	36.432
755.72	36.450
755.90	36.364
756.08	36.403
756.26	36.413
756.44	36.430
756.62	36.318
756.80	36.320
756.98	36.243
757.16	36.202
757.34	36.167
757.52	36.113
757.70	36.110
757.88	36.126
758.06	36.061
758.24	36.054
758.42	36.052
758.61	36.161
758.79	36.068
758.97	36.132
759.15	36.160
759.33	36.131
759.51	36.139
759.69	36.146
759.87	36.151
760.05	36.171
760.23	36.189
760.41	36.178
760.59	36.086
760.77	36.145
760.95	36.123
761.13	36.086
761.31	36.172
761.49	36.128
761.67	36.118
761.85	36.102
762.03	36.060
762.21	36.008
762.39	36.012
762.57	35.996
762.75	35.951
762.93	35.881
763.11	35.901
763.29	35.806
763.47	35.783
763.65	35.786
763.83	35.795
764.01	35.807
764.19	35.822
764.37	35.829
764.55	35.877
764.73	35.941
764.91	35.982
765.09	35.985
765.27	36.032
765.45	36.083
765.63	36.074
765.81	36.109
765.99	36.128
766.17	36.173
766.35	36.174
766.53	36.188
766.71	36.154
766.89	36.215
767.07	36.197
767.25	36.216
767.43	36.220
767.61	36.251
767.78	36.214
767.96	36.214
768.14	36.146
768.32	36.214
768.50	36.222
768.68	36.268
768.86	36.233
769.04	36.229
769.22	36.235
769.40	36.244
769.58	36.274
769.76	36.349
769.94	36.370
770.12	36.364
770.30	36.291
770.48	36.230
770.66	36.201
770.84	36.186
771.01	36.175
771.19	36.192
771.37	36.265
771.55	36.289
771.73	36.237
771.91	36.268
772.09	36.358
772.27	36.359
772.45	36.355
772.63	36.327
772.81	36.315
772.99	36.308
773.16	36.291
773.34	36.235
773.52	36.229
773.70	36.223
773.88	36.190
774.06	36.187
774.24	36.174
774.42	36.228
774.60	36.219
774.78	36.280
774.95	36.316
775.13	36.281
775.31	36.282
775.49	36.183
775.67	36.189
775.85	36.196
776.03	36.099
776.21	36.083
776.38	36.116
776.56	36.182
776.74	36.072
776.92	36.187
777.10	36.232
777.28	36.234
777.46	36.383
777.64	36.393
777.81	36.342
777.99	36.449
778.17	36.467
778.35	36.441
778.53	36.408
778.71	36.512
778.89	36.389
779.06	36.415
779.24	36.435
779.42	36.366
779.60	36.357
779.78	36.515
779.96	36.523
780.13	36.504
780.31	36.440
780.49	36.420
780.67	36.469
780.85	36.499
781.03	36.523
781.20	36.512
781.38	36.499
781.56	36.435
781.74	36.314
781.92	36.255
782.10	36.335
782.27	36.323
782.45	36.370
782.63	36.219
782.81	36.235
782.99	36.254
783.17	36.220
783.34	36.198
783.52	36.218
783.70	36.215
783.88	36.248
784.06	36.289
784.23	36.293
784.41	36.285
784.59	36.411
784.77	36.392
784.95	36.334
785.12	36.377
785.30	36.445
785.48	36.555
785.66	36.549
785.83	36.495
786.01	36.425
786.19	36.418
786.37	36.289
786.55	36.161
786.72	36.122
786.90	36.135
787.08	36.041
787.26	36.000
787.43	35.985
787.61	35.961
787.79	35.935
787.97	35.953
788.15	36.049
788.32	36.142
788.50	36.214
788.68	36.276
788.86	36.320
789.03	36.315
789.21	36.315
789.39	36.364
789.57	36.395
789.74	36.489
789.92	36.459
790.10	36.381
790.28	36.400
790.45	36.416
790.63	36.368
790.81	36.208
790.99	36.236
791.16	36.236
791.34	36.092
791.52	36.088
791.69	35.974
791.87	35.923
792.05	36.021
792.23	36.001
792.40	35.926
792.58	36.015
792.76	36.075
792.94	36.051
793.11	36.062
793.29	36.048
793.47	36.048
793.64	36.255
793.82	36.314
794.00	36.316
794.18	36.187
794.35	36.209
794.53	36.167
794.71	36.208
794.88	36.334
795.06	36.367
795.24	36.546
795.41	36.495
795.59	36.348
795.77	36.319
795.94	36.228
796.12	36.356
796.30	36.445
796.48	36.476
796.65	36.418
796.83	36.479
797.01	36.472
797.18	36.281
797.36	36.360
797.54	36.331
797.71	36.250
797.89	36.323
798.07	36.305
798.24	36.164
798.42	36.086
798.60	36.204
798.77	36.124
798.95	36.111
799.13	36.123
799.30	36.054
799.48	36.055
799.66	36.128
799.83	36.146
800.01	36.082
800.18	36.195
800.36	36.333
800.54	36.266
800.71	36.335
800.89	36.282
801.07	36.242
801.24	36.279
801.42	36.307
801.60	36.321
801.77	36.259
801.95	36.316
802.12	36.220
802.30	36.046
802.48	35.983
802.65	35.832
802.83	35.850
803.01	35.967
803.18	36.016
803.36	36.015
803.53	36.041
803.71	36.065
803.89	36.120
804.06	36.118
804.24	36.177
804.41	36.118
804.59	36.237
804.77	36.206
804.94	36.153
805.12	36.162
805.29	36.254
805.47	36.286
805.65	36.268
805.82	36.124
806.00	36.243
806.17	36.239
806.35	36.309
806.53	36.276
806.70	36.422
806.88	36.412
807.05	36.367
807.23	36.249
807.40	36.216
807.58	36.179
807.76	36.279
807.93	36.247
808.11	36.218
808.28	36.259
808.46	36.231
808.63	36.102
808.81	36.196
808.99	36.168
809.16	36.198
809.34	36.186
809.51	36.298
809.69	36.370
809.86	36.416
810.04	36.445
810.21	36.424
810.39	36.478
810.57	36.463
810.74	36.434
810.92	36.310
811.09	36.235
811.27	36.261
811.44	36.191
811.62	36.071
811.79	35.917
811.97	36.020
812.14	36.089
812.32	35.932
812.49	35.989
812.67	36.021
812.84	36.201
813.02	36.255
813.19	36.211
813.37	36.243
813.55	36.448
813.72	36.536
813.90	36.513
814.07	36.351
814.25	36.480
814.42	36.303
814.60	36.222
814.77	36.197
814.95	36.073
815.12	36.075
815.30	35.937
815.47	35.848
815.65	35.854
815.82	35.841
816.00	35.854
816.17	35.720
816.35	35.884
816.52	35.944
816.69	35.910
816.87	36.046
817.04	35.975
817.22	36.123
817.39	35.989
817.57	35.916
817.74	35.968
817.92	36.105
818.09	36.133
818.27	36.114
818.44	36.204
818.62	36.124
818.79	36.113
818.97	36.259
819.14	36.214
819.32	36.383
819.49	36.490
819.66	36.423
819.84	36.443
820.01	36.472
820.19	36.442
820.36	36.343
820.54	36.442
820.71	36.398
820.89	36.408
821.06	36.442
821.23	36.472
821.41	36.418
821.58	36.390
821.76	36.281
821.93	36.251
822.11	36.145
822.28	36.117
822.45	36.067
822.63	36.043
822.80	35.974
822.98	35.945
823.15	35.905
823.33	35.881
823.50	35.852
823.67	35.838
823.85	35.811
824.02	35.819
824.20	35.804
824.37	35.815
824.54	35.834
824.72	35.885
824.89	35.898
825.07	35.932
825.24	35.969
825.41	36.013
825.59	36.078
825.76	36.142
825.94	36.201
826.11	36.293
826.28	36.324
826.46	36.354
826.63	36.372
826.80	36.332
826.98	36.240
827.15	36.268
827.33	36.233
827.50	36.206
827.67	36.203
827.85	36.193
828.02	36.154
828.19	36.135
828.37	36.118
828.54	36.136
828.72	36.156
828.89	36.228
829.06	36.232
829.24	36.273
829.41	36.298
829.58	36.249
829.76	36.251
829.93	36.250
830.10	36.263
830.28	36.275
830.45	36.319
830.62	36.400
830.80	36.401
830.97	36.354
831.14	36.454
831.32	36.431
831.49	36.625
831.66	36.732
831.84	36.789
832.01	36.769
832.18	36.660
832.36	36.466
832.53	36.465
832.70	36.635
832.88	36.696
833.05	36.594
833.22	36.556
833.40	36.519
833.57	36.389
833.74	36.278
833.91	36.320
834.09	36.341
834.26	36.305
834.43	36.314
834.61	36.219
834.78	36.157
834.95	36.123
835.13	36.096
835.30	36.046
835.47	36.100
835.64	36.154
835.82	36.139
835.99	36.098
836.16	36.143
836.34	36.126
836.51	36.162
836.68	36.184
836.85	36.207
837.03	36.222
837.20	36.277
837.37	36.246
837.54	36.262
837.72	36.213
837.89	36.205
838.06	36.298
838.24	36.223
838.41	36.250
838.58	36.327
838.75	36.267
838.93	36.257
839.10	36.281
839.27	36.122
839.44	36.047
839.62	35.990
839.79	36.231
839.96	36.219
840.13	36.242
840.31	36.191
840.48	36.179
840.65	36.197
840.82	36.382
840.99	36.305
841.17	36.409
841.34	36.452
841.51	36.555
841.68	36.432
841.86	36.432
842.03	36.551
842.20	36.532
842.37	36.507
842.55	36.539
842.72	36.493
842.89	36.356
843.06	36.340
843.23	36.241
843.41	35.984
843.58	35.926
843.75	35.778
843.92	35.746
844.09	35.813
844.27	35.757
844.44	35.767
844.61	35.805
844.78	36.098
844.95	36.131
845.13	36.153
845.30	36.223
845.47	36.445
845.64	36.409
845.81	36.191
845.98	36.360
846.16	36.407
846.33	36.684
846.50	36.215
846.67	36.133
846.84	36.101
847.02	36.327
847.19	36.046
847.36	35.856
847.53	36.285
847.70	36.632
847.87	36.461
848.04	36.685
848.22	36.464
848.39	36.949
848.56	36.828
848.73	36.699
848.90	36.391
849.07	36.731
849.25	36.916
849.42	36.639
849.59	36.087
849.76	36.138
849.93	35.667
850.10	35.676
850.27	35.456
850.45	35.633
850.62	35.737
850.79	35.834
850.96	35.998
851.13	36.081
851.30	35.934
851.47	36.063
851.64	36.002
851.82	36.182
851.99	36.431
852.16	36.372
852.33	36.451
852.50	36.409
852.67	36.555
852.84	36.387
853.01	36.179
853.18	36.327
853.35	36.591
853.53	36.892
853.70	36.984
853.87	36.929
854.04	36.803
854.21	36.552
854.38	36.637
854.55	36.622
854.72	36.675
854.89	36.504
855.06	36.489
855.23	36.183
855.41	35.515
855.58	35.426
855.75	35.304
855.92	35.306
856.09	35.552
856.26	35.451
856.43	35.683
856.60	35.704
856.77	35.325
856.94	35.092
857.11	35.197
857.28	36.069
857.45	36.350
857.62	36.266
857.80	36.544
857.97	36.399
858.14	36.564
858.31	36.198
858.48	36.239
858.65	36.878
858.82	37.006
858.99	37.039
859.16	36.400
859.33	36.300
859.50	36.482
859.67	36.069
859.84	36.123
860.01	36.118
860.18	36.292
860.35	36.142
860.52	36.302
860.69	36.526
860.86	36.675
861.03	36.963
861.20	36.969
861.37	37.178
861.54	37.720
861.71	37.962
861.88	37.821
862.05	37.908
862.22	38.156
862.39	38.064
862.56	37.799
862.73	37.628
862.90	37.448
863.07	37.317
863.24	36.940
863.41	36.748
863.58	36.463
863.75	36.537
863.92	36.383
864.09	36.256
864.26	35.929
864.43	36.244
864.60	36.062
864.77	36.151
864.94	36.196
865.11	36.434
865.28	36.670
865.45	36.628
865.62	36.574
865.79	36.836
865.96	36.789
866.13	36.658
866.30	36.776
866.47	37.379
866.64	37.497
866.81	37.623
866.98	37.429
867.15	37.325
867.32	37.188
867.49	37.404
867.66	37.071
867.82	37.075
867.99	37.517
868.16	37.330
868.33	36.809
868.50	36.926
868.67	36.879
868.84	36.734
869.01	36.605
869.18	37.030
869.35	36.932
869.52	37.118
869.69	37.370
869.86	37.449
870.03	37.249
870.19	37.565
870.36	37.535
870.53	37.194
870.70	37.251
870.87	37.469
871.04	37.263
871.21	37.120
871.38	36.936
871.55	36.702
871.72	36.464
871.89	36.616
872.05	36.333
872.22	35.701
872.39	36.134
872.56	36.030
872.73	35.578
872.90	35.380
873.07	35.553
873.24	35.569
873.41	35.877
873.57	35.916
873.74	35.807
873.91	35.993
874.08	36.444
874.25	36.373
874.42	36.743
874.59	36.954
874.76	37.147
874.92	36.781
875.09	37.042
875.26	36.687
875.43	36.697
875.60	36.664
875.77	36.405
875.94	36.640
876.11	36.567
876.27	36.404
876.44	36.084
876.61	36.336
876.78	36.452
876.95	36.499
877.12	36.587
877.28	36.498
877.45	36.526
877.62	36.663
877.79	36.435
877.96	36.230
878.13	36.313
878.29	36.536
878.46	36.239
878.63	36.499
878.80	36.168
878.97	36.064
879.14	36.225
879.30	36.303
879.47	36.275
879.64	36.384
879.81	36.550
879.98	36.427
880.14	36.389
880.31	36.580
880.48	36.420
880.65	36.378
880.82	36.407
880.98	36.184
881.15	35.991
881.32	35.821
881.49	35.720
881.66	35.651
881.82	35.620
881.99	35.616
882.16	35.572
882.33	35.598
882.50	35.605
882.66	35.633
882.83	35.676
883.00	35.724
883.17	35.825
883.33	35.888
883.50	35.941
883.67	36.039
883.84	36.121
884.01	36.207
884.17	36.306
884.34	36.360
884.51	36.381
884.68	36.439
884.84	36.481
885.01	36.539
885.18	36.584
885.35	36.670
885.51	36.684
885.68	36.683
885.85	36.687
886.02	36.672
886.18	36.755
886.35	36.765
886.52	36.789
886.69	36.878
886.85	36.781
887.02	36.665
887.19	36.777
887.35	36.776
887.52	36.765
887.69	36.712
887.86	36.610
888.02	36.605
888.19	36.517
888.36	35.884
888.53	35.433
888.69	37.947
888.86	36.345
889.03	36.032
>>>>>End Spectral Data<<<<<
